Start Voltage: 4.195

Time (s) - Voltage	Voltage - Voltage	Time (s) - Current	Current - Current	Time (s) - Power	Power - Power	
0	4.04149	0	4.27985	0	17.297	
1	4.03702	1	4.27985	1	17.2778	
2	4.03331	2	4.27985	2	17.262	
3	4.02907	3	4.27985	3	17.2438	
4	4.02626	4	4.27985	4	17.2318	
5	4.02286	5	4.27985	5	17.2172	
6	4.02043	6	4.27985	6	17.2068	
7	4.01749	7	4.27985	7	17.1943	
8	4.01537	8	4.27985	8	17.1852	
9	4.01271	9	4.27985	9	17.1738	
10	4.01082	10	4.27985	10	17.1657	
11	4.00839	11	4.27985	11	17.1553	
12	4.00665	12	4.27985	12	17.1479	
13	4.00499	13	4.27985	13	17.1408	
14	4.00279	14	4.27985	14	17.1313	
15	4.00128	15	4.27985	15	17.1249	
16	3.99924	16	4.27985	16	17.1161	
17	3.9978	17	4.27985	17	17.11	
18	3.99591	18	4.27985	18	17.1019	
19	3.99454	19	4.27985	19	17.096	
20	3.9928	20	4.27985	20	17.0886	
21	3.99152	21	4.27985	21	17.0831	
22	3.98985	22	4.27985	22	17.076	
23	3.98856	23	4.27985	23	17.0704	
24	3.98743	24	4.27985	24	17.0656	
25	3.98584	25	4.27985	25	17.0588	
26	3.9847	26	4.27985	26	17.0539	
27	3.98326	27	4.27985	27	17.0478	
28	3.98213	28	4.27985	28	17.0429	
29	3.98068	29	4.27969	29	17.0361	
30	3.97971	30	4.27985	30	17.0326	
31	3.97835	31	4.27985	31	17.0267	
32	3.97736	32	4.27985	32	17.0225	
33	3.97607	33	4.27985	33	17.017	
34	3.97516	34	4.27985	34	17.0131	
35	3.97418	35	4.27985	35	17.0089	
36	3.97296	36	4.27985	36	17.0037	
37	3.97206	37	4.27985	37	16.9998	
38	3.97092	38	4.27985	38	16.9949	
39	3.97002	39	4.27985	39	16.9911	
40	3.96889	40	4.27985	40	16.9863	
41	3.96805	41	4.27969	41	16.982	
42	3.96698	42	4.27985	42	16.9781	
43	3.96616	43	4.27969	43	16.9739	
44	3.96509	44	4.27985	44	16.97	
45	3.96434	45	4.27969	45	16.9661	
46	3.96327	46	4.27969	46	16.9616	
47	3.9626	47	4.27969	47	16.9587	
48	3.96184	48	4.27969	48	16.9554	
49	3.96086	49	4.27969	49	16.9513	
50	3.96017	50	4.27969	50	16.9483	
51	3.95918	51	4.27985	51	16.9447	
52	3.95851	52	4.27969	52	16.9412	
53	3.9576	53	4.27969	53	16.9373	
54	3.95692	54	4.27969	54	16.9344	
55	3.95609	55	4.27969	55	16.9308	
56	3.9554	56	4.27969	56	16.9279	
57	3.9548	57	4.27969	57	16.9253	
58	3.95389	58	4.27969	58	16.9214	
59	3.95335	59	4.27969	59	16.9191	
60	3.95245	60	4.27969	60	16.9153	
61	3.95192	61	4.27985	61	16.9136	
62	3.9511	62	4.27969	62	16.9095	
63	3.95049	63	4.27969	63	16.9069	
64	3.94972	64	4.27969	64	16.9036	
65	3.9492	65	4.27969	65	16.9014	
66	3.94844	66	4.27969	66	16.8981	
67	3.94791	67	4.27969	67	16.8958	
68	3.94731	68	4.27969	68	16.8933	
69	3.94662	69	4.27969	69	16.8903	
70	3.94609	70	4.27969	70	16.888	
71	3.9454	71	4.27969	71	16.8851	
72	3.94489	72	4.27969	72	16.8829	
73	3.9442	73	4.27985	73	16.8806	
74	3.94374	74	4.27969	74	16.878	
75	3.94307	75	4.27969	75	16.8751	
76	3.94261	76	4.27969	76	16.8731	
77	3.94193	77	4.27969	77	16.8702	
78	3.94147	78	4.27969	78	16.8683	
79	3.94095	79	4.27985	79	16.8667	
80	3.94034	80	4.27985	80	16.8641	
81	3.93988	81	4.27985	81	16.8621	
82	3.93929	82	4.27969	82	16.8589	
83	3.93883	83	4.27969	83	16.857	
84	3.93829	84	4.27969	84	16.8547	
85	3.93784	85	4.27969	85	16.8527	
86	3.93732	86	4.27969	86	16.8505	
87	3.93686	87	4.27985	87	16.8492	
88	3.93633	88	4.27969	88	16.8463	
89	3.93594	89	4.27969	89	16.8446	
90	3.9355	90	4.27985	90	16.8433	
91	3.93497	91	4.27969	91	16.8405	
92	3.93459	92	4.27969	92	16.8388	
93	3.93405	93	4.27969	93	16.8365	
94	3.93367	94	4.27969	94	16.8349	
95	3.93315	95	4.27985	95	16.8333	
96	3.93277	96	4.27969	96	16.831	
97	3.93224	97	4.27969	97	16.8288	
98	3.93185	98	4.27969	98	16.8271	
99	3.93141	99	4.27969	99	16.8252	
100	3.93103	100	4.27969	100	16.8236	
101	3.93065	101	4.27969	101	16.822	
102	3.93019	102	4.27985	102	16.8206	
103	3.92981	103	4.27969	103	16.8184	
104	3.92944	104	4.27969	104	16.8168	
105	3.92906	105	4.27969	105	16.8152	
106	3.9286	106	4.27969	106	16.8132	
107	3.9283	107	4.27985	107	16.8125	
108	3.92784	108	4.27969	108	16.8099	
109	3.92755	109	4.27969	109	16.8087	
110	3.92709	110	4.27985	110	16.8074	
111	3.92679	111	4.27969	111	16.8054	
112	3.92648	112	4.27985	112	16.8047	
113	3.92603	113	4.27969	113	16.8022	
114	3.92574	114	4.27969	114	16.801	
115	3.92535	115	4.27985	115	16.7999	
116	3.92505	116	4.27969	116	16.798	
117	3.92467	117	4.27985	117	16.797	
118	3.92436	118	4.27969	118	16.795	
119	3.92398	119	4.27985	119	16.794	
120	3.92369	120	4.27969	120	16.7922	
121	3.92331	121	4.27969	121	16.7906	
122	3.923	122	4.27969	122	16.7892	
123	3.9227	123	4.27969	123	16.7879	
124	3.92239	124	4.27985	124	16.7872	
125	3.92209	125	4.27969	125	16.7853	
126	3.92172	126	4.27969	126	16.7837	
127	3.92142	127	4.27969	127	16.7825	
128	3.92111	128	4.27969	128	16.7811	
129	3.92081	129	4.27969	129	16.7799	
130	3.9205	130	4.27985	130	16.7792	
131	3.9202	131	4.27969	131	16.7772	
132	3.91983	132	4.27969	132	16.7757	
133	3.9196	133	4.27969	133	16.7747	
134	3.91937	134	4.27969	134	16.7737	
135	3.91899	135	4.27969	135	16.7721	
136	3.91876	136	4.27969	136	16.7711	
137	3.91846	137	4.27969	137	16.7698	
138	3.91823	138	4.27969	138	16.7688	
139	3.91786	139	4.27969	139	16.7672	
140	3.91763	140	4.27969	140	16.7662	
141	3.91733	141	4.27969	141	16.765	
142	3.9171	142	4.27969	142	16.764	
143	3.91679	143	4.27969	143	16.7626	
144	3.91656	144	4.27969	144	16.7617	
145	3.91634	145	4.27969	145	16.7607	
146	3.91603	146	4.27969	146	16.7594	
147	3.91582	147	4.27969	147	16.7585	
148	3.91551	148	4.27969	148	16.7572	
149	3.91528	149	4.27969	149	16.7562	
150	3.91498	150	4.27969	150	16.7549	
151	3.91475	151	4.27969	151	16.7539	
152	3.91444	152	4.27985	152	16.7532	
153	3.91422	153	4.27969	153	16.7516	
154	3.91393	154	4.27969	154	16.7504	
155	3.9137	155	4.27969	155	16.7494	
156	3.91347	156	4.27969	156	16.7484	
157	3.91316	157	4.27969	157	16.7471	
158	3.91301	158	4.27969	158	16.7465	
159	3.9127	159	4.27969	159	16.7451	
160	3.91248	160	4.27969	160	16.7442	
161	3.91217	161	4.27969	161	16.7429	
162	3.91202	162	4.27985	162	16.7429	
163	3.91173	163	4.27969	163	16.741	
164	3.9115	164	4.27969	164	16.74	
165	3.91127	165	4.27969	165	16.739	
166	3.91104	166	4.27969	166	16.738	
167	3.91081	167	4.27969	167	16.7371	
168	3.91058	168	4.27969	168	16.7361	
169	3.91035	169	4.27969	169	16.7351	
170	3.91013	170	4.27969	170	16.7341	
171	3.90991	171	4.27969	171	16.7332	
172	3.90968	172	4.27969	172	16.7322	
173	3.90945	173	4.27969	173	16.7312	
174	3.90923	174	4.27969	174	16.7303	
175	3.909	175	4.27969	175	16.7293	
176	3.90877	176	4.27969	176	16.7283	
177	3.90862	177	4.27969	177	16.7277	
178	3.90839	178	4.27969	178	16.7267	
179	3.90816	179	4.27969	179	16.7257	
180	3.90794	180	4.27969	180	16.7248	
181	3.90771	181	4.27969	181	16.7238	
182	3.90749	182	4.27969	182	16.7228	
183	3.90726	183	4.27969	183	16.7219	
184	3.9071	184	4.27969	184	16.7212	
185	3.9068	185	4.27969	185	16.7199	
186	3.90665	186	4.27969	186	16.7193	
187	3.90642	187	4.27969	187	16.7183	
188	3.90619	188	4.27969	188	16.7173	
189	3.90605	189	4.27969	189	16.7167	
190	3.90582	190	4.27969	190	16.7157	
191	3.90567	191	4.27969	191	16.7151	
192	3.90536	192	4.27985	192	16.7144	
193	3.90521	193	4.27969	193	16.7131	
194	3.90498	194	4.27969	194	16.7121	
195	3.90475	195	4.27969	195	16.7111	
196	3.90453	196	4.27969	196	16.7102	
197	3.90437	197	4.27969	197	16.7095	
198	3.90416	198	4.27985	198	16.7092	
199	3.90393	199	4.27969	199	16.7076	
200	3.90378	200	4.27969	200	16.707	
201	3.90355	201	4.27969	201	16.706	
202	3.9034	202	4.27969	202	16.7053	
203	3.90317	203	4.27969	203	16.7044	
204	3.90302	204	4.27969	204	16.7037	
205	3.90279	205	4.27969	205	16.7027	
206	3.90256	206	4.27969	206	16.7017	
207	3.90233	207	4.27969	207	16.7008	
208	3.90219	208	4.27969	208	16.7002	
209	3.90196	209	4.27969	209	16.6992	
210	3.90181	210	4.27969	210	16.6985	
211	3.90166	211	4.27969	211	16.6979	
212	3.90143	212	4.27969	212	16.6969	
213	3.90128	213	4.27969	213	16.6963	
214	3.90105	214	4.27969	214	16.6953	
215	3.90082	215	4.27969	215	16.6943	
216	3.90059	216	4.27969	216	16.6933	
217	3.90044	217	4.27969	217	16.6927	
218	3.90022	218	4.27969	218	16.6917	
219	3.90007	219	4.27969	219	16.6911	
220	3.89992	220	4.27969	220	16.6904	
221	3.89969	221	4.27969	221	16.6895	
222	3.89954	222	4.27969	222	16.6888	
223	3.89938	223	4.27969	223	16.6881	
224	3.89915	224	4.27969	224	16.6872	
225	3.899	225	4.27969	225	16.6865	
226	3.89877	226	4.27969	226	16.6855	
227	3.89862	227	4.27969	227	16.6849	
228	3.89847	228	4.27969	228	16.6842	
229	3.89825	229	4.27969	229	16.6833	
230	3.8981	230	4.27969	230	16.6827	
231	3.89787	231	4.27969	231	16.6817	
232	3.89772	232	4.27969	232	16.681	
233	3.89757	233	4.27969	233	16.6804	
234	3.89734	234	4.27969	234	16.6794	
235	3.89719	235	4.27969	235	16.6788	
236	3.89696	236	4.27969	236	16.6778	
237	3.8968	237	4.27969	237	16.6771	
238	3.89658	238	4.27969	238	16.6762	
239	3.89642	239	4.27969	239	16.6755	
240	3.89621	240	4.27969	240	16.6746	
241	3.89606	241	4.27969	241	16.6739	
242	3.8959	242	4.27969	242	16.6732	
243	3.89575	243	4.27969	243	16.6726	
244	3.8956	244	4.27985	244	16.6726	
245	3.89537	245	4.27969	245	16.671	
246	3.89522	246	4.27969	246	16.6703	
247	3.89499	247	4.27985	247	16.67	
248	3.89484	248	4.27969	248	16.6687	
249	3.89461	249	4.27969	249	16.6677	
250	3.89445	250	4.27969	250	16.667	
251	3.89432	251	4.27969	251	16.6665	
252	3.89417	252	4.27969	252	16.6658	
253	3.89394	253	4.27969	253	16.6649	
254	3.89378	254	4.27985	254	16.6648	
255	3.89363	255	4.27969	255	16.6635	
256	3.89348	256	4.27969	256	16.6629	
257	3.89333	257	4.27985	257	16.6629	
258	3.8931	258	4.27969	258	16.6613	
259	3.89294	259	4.27969	259	16.6606	
260	3.89272	260	4.27969	260	16.6596	
261	3.89256	261	4.27985	261	16.6596	
262	3.89235	262	4.27969	262	16.6581	
263	3.89227	263	4.27969	263	16.6577	
264	3.89204	264	4.27969	264	16.6567	
265	3.89189	265	4.27969	265	16.6561	
266	3.89174	266	4.27969	266	16.6554	
267	3.89159	267	4.27969	267	16.6548	
268	3.89136	268	4.27969	268	16.6538	
269	3.8912	269	4.27969	269	16.6531	
270	3.89105	270	4.27969	270	16.6525	
271	3.89082	271	4.27969	271	16.6515	
272	3.89067	272	4.27969	272	16.6509	
273	3.89052	273	4.27969	273	16.6502	
274	3.89038	274	4.27969	274	16.6496	
275	3.89015	275	4.27969	275	16.6486	
276	3.89	276	4.27969	276	16.648	
277	3.88985	277	4.27969	277	16.6474	
278	3.88969	278	4.27969	278	16.6467	
279	3.88954	279	4.27969	279	16.646	
280	3.88931	280	4.27969	280	16.645	
281	3.88916	281	4.27969	281	16.6444	
282	3.88901	282	4.27969	282	16.6438	
283	3.88885	283	4.27969	283	16.6431	
284	3.8887	284	4.27969	284	16.6424	
285	3.88855	285	4.27969	285	16.6418	
286	3.88834	286	4.27969	286	16.6409	
287	3.88818	287	4.27969	287	16.6402	
288	3.88803	288	4.27969	288	16.6396	
289	3.88788	289	4.27969	289	16.6389	
290	3.88773	290	4.27969	290	16.6383	
291	3.8875	291	4.27969	291	16.6373	
292	3.88742	292	4.27969	292	16.637	
293	3.88719	293	4.27969	293	16.636	
294	3.88704	294	4.27969	294	16.6353	
295	3.88689	295	4.27969	295	16.6347	
296	3.88673	296	4.27969	296	16.634	
297	3.88652	297	4.27969	297	16.6331	
298	3.88637	298	4.27969	298	16.6325	
299	3.88629	299	4.27969	299	16.6321	
300	3.88606	300	4.27969	300	16.6311	
301	3.88591	301	4.27969	301	16.6305	
302	3.88576	302	4.27969	302	16.6298	
303	3.8856	303	4.27969	303	16.6292	
304	3.88545	304	4.27969	304	16.6285	
305	3.8853	305	4.27969	305	16.6279	
306	3.88507	306	4.27969	306	16.6269	
307	3.88499	307	4.27969	307	16.6266	
308	3.88477	308	4.27969	308	16.6256	
309	3.88461	309	4.27969	309	16.6249	
310	3.88448	310	4.27969	310	16.6244	
311	3.88432	311	4.27969	311	16.6237	
312	3.88417	312	4.27969	312	16.623	
313	3.88402	313	4.27969	313	16.6224	
314	3.88387	314	4.27969	314	16.6218	
315	3.88364	315	4.27969	315	16.6208	
316	3.88348	316	4.27969	316	16.6201	
317	3.88333	317	4.27969	317	16.6194	
318	3.88318	318	4.27969	318	16.6188	
319	3.88303	319	4.27969	319	16.6182	
320	3.88287	320	4.27969	320	16.6175	
321	3.88272	321	4.27969	321	16.6168	
322	3.88258	322	4.27969	322	16.6162	
323	3.88243	323	4.27969	323	16.6156	
324	3.8822	324	4.27969	324	16.6146	
325	3.88213	325	4.27969	325	16.6143	
326	3.8819	326	4.27969	326	16.6133	
327	3.88174	327	4.27969	327	16.6126	
328	3.88159	328	4.27969	328	16.612	
329	3.88144	329	4.27969	329	16.6114	
330	3.88129	330	4.27969	330	16.6107	
331	3.88113	331	4.27969	331	16.61	
332	3.88098	332	4.27969	332	16.6094	
333	3.88083	333	4.27969	333	16.6087	
334	3.88068	334	4.27969	334	16.6081	
335	3.88054	335	4.27985	335	16.6081	
336	3.88039	336	4.27969	336	16.6069	
337	3.88023	337	4.27969	337	16.6062	
338	3.88008	338	4.27969	338	16.6055	
339	3.87993	339	4.27969	339	16.6049	
340	3.87978	340	4.27969	340	16.6043	
341	3.87962	341	4.27969	341	16.6036	
342	3.87947	342	4.27969	342	16.6029	
343	3.87932	343	4.27969	343	16.6023	
344	3.87917	344	4.27969	344	16.6016	
345	3.87901	345	4.27969	345	16.601	
346	3.87878	346	4.27969	346	16.6	
347	3.87871	347	4.27969	347	16.5997	
348	3.87849	348	4.27969	348	16.5987	
349	3.87834	349	4.27969	349	16.5981	
350	3.87819	350	4.27969	350	16.5975	
351	3.87804	351	4.27969	351	16.5968	
352	3.87788	352	4.27969	352	16.5961	
353	3.87773	353	4.27969	353	16.5955	
354	3.87758	354	4.27969	354	16.5948	
355	3.87743	355	4.27969	355	16.5942	
356	3.87727	356	4.27969	356	16.5935	
357	3.87712	357	4.27954	357	16.5923	
358	3.87697	358	4.27969	358	16.5922	
359	3.87682	359	4.27969	359	16.5916	
360	3.87668	360	4.27969	360	16.591	
361	3.87653	361	4.27969	361	16.5903	
362	3.87637	362	4.27969	362	16.5897	
363	3.87622	363	4.27969	363	16.589	
364	3.87607	364	4.27969	364	16.5884	
365	3.87592	365	4.27954	365	16.5872	
366	3.87576	366	4.27969	366	16.5871	
367	3.87561	367	4.27969	367	16.5864	
368	3.87546	368	4.27969	368	16.5858	
369	3.87531	369	4.27969	369	16.5851	
370	3.87515	370	4.27969	370	16.5844	
371	3.875	371	4.27969	371	16.5838	
372	3.87477	372	4.27969	372	16.5828	
373	3.87471	373	4.27969	373	16.5826	
374	3.87448	374	4.27969	374	16.5816	
375	3.8744	375	4.27969	375	16.5812	
376	3.87425	376	4.27969	376	16.5806	
377	3.8741	377	4.27969	377	16.5799	
378	3.87395	378	4.27969	378	16.5793	
379	3.87379	379	4.27969	379	16.5786	
380	3.87364	380	4.27969	380	16.578	
381	3.87349	381	4.27969	381	16.5773	
382	3.87334	382	4.27969	382	16.5767	
383	3.87318	383	4.27969	383	16.576	
384	3.87303	384	4.27969	384	16.5754	
385	3.87288	385	4.27969	385	16.5747	
386	3.87274	386	4.27969	386	16.5741	
387	3.87259	387	4.27985	387	16.5741	
388	3.87244	388	4.27969	388	16.5728	
389	3.87228	389	4.27969	389	16.5722	
390	3.87213	390	4.27969	390	16.5715	
391	3.87198	391	4.27969	391	16.5709	
392	3.87183	392	4.27969	392	16.5702	
393	3.87167	393	4.27969	393	16.5695	
394	3.87152	394	4.27969	394	16.5689	
395	3.87137	395	4.27969	395	16.5683	
396	3.87122	396	4.27969	396	16.5676	
397	3.87114	397	4.27969	397	16.5673	
398	3.87099	398	4.27969	398	16.5666	
399	3.87077	399	4.27969	399	16.5657	
400	3.8707	400	4.27969	400	16.5654	
401	3.87047	401	4.27969	401	16.5644	
402	3.87039	402	4.27969	402	16.5641	
403	3.87016	403	4.27969	403	16.5631	
404	3.87009	404	4.27969	404	16.5628	
405	3.86986	405	4.27969	405	16.5618	
406	3.86978	406	4.27969	406	16.5615	
407	3.86955	407	4.27969	407	16.5605	
408	3.8694	408	4.27969	408	16.5598	
409	3.86932	409	4.27969	409	16.5595	
410	3.86917	410	4.27969	410	16.5588	
411	3.86902	411	4.27969	411	16.5582	
412	3.86887	412	4.27969	412	16.5576	
413	3.86873	413	4.27969	413	16.557	
414	3.86858	414	4.27969	414	16.5563	
415	3.86842	415	4.27969	415	16.5556	
416	3.86827	416	4.27969	416	16.555	
417	3.86812	417	4.27969	417	16.5544	
418	3.86797	418	4.27969	418	16.5537	
419	3.86781	419	4.27969	419	16.553	
420	3.86766	420	4.27969	420	16.5524	
421	3.86751	421	4.27969	421	16.5517	
422	3.86736	422	4.27969	422	16.5511	
423	3.8672	423	4.27969	423	16.5504	
424	3.86705	424	4.27969	424	16.5498	
425	3.8669	425	4.27969	425	16.5491	
426	3.86676	426	4.27969	426	16.5485	
427	3.86661	427	4.27969	427	16.5479	
428	3.86646	428	4.27969	428	16.5473	
429	3.8663	429	4.27969	429	16.5466	
430	3.86623	430	4.27969	430	16.5463	
431	3.866	431	4.27969	431	16.5453	
432	3.86584	432	4.27969	432	16.5446	
433	3.86577	433	4.27969	433	16.5443	
434	3.86562	434	4.27969	434	16.5437	
435	3.86546	435	4.27969	435	16.543	
436	3.86531	436	4.27969	436	16.5423	
437	3.86516	437	4.27969	437	16.5417	
438	3.86501	438	4.27969	438	16.541	
439	3.86487	439	4.27969	439	16.5404	
440	3.86472	440	4.27969	440	16.5398	
441	3.86456	441	4.27969	441	16.5391	
442	3.86441	442	4.27969	442	16.5385	
443	3.86426	443	4.27969	443	16.5378	
444	3.86411	444	4.27969	444	16.5372	
445	3.86395	445	4.27969	445	16.5365	
446	3.8638	446	4.27954	446	16.5353	
447	3.86365	447	4.27969	447	16.5352	
448	3.86349	448	4.27969	448	16.5345	
449	3.86334	449	4.27969	449	16.5339	
450	3.86319	450	4.27954	450	16.5327	
451	3.86304	451	4.27969	451	16.5326	
452	3.8629	452	4.27969	452	16.532	
453	3.86275	453	4.27969	453	16.5314	
454	3.86259	454	4.27969	454	16.5307	
455	3.86244	455	4.27969	455	16.53	
456	3.86229	456	4.27969	456	16.5294	
457	3.86221	457	4.27969	457	16.5291	
458	3.86198	458	4.27969	458	16.5281	
459	3.86183	459	4.27969	459	16.5274	
460	3.86168	460	4.27969	460	16.5268	
461	3.86153	461	4.27969	461	16.5262	
462	3.86137	462	4.27969	462	16.5255	
463	3.8613	463	4.27969	463	16.5252	
464	3.86115	464	4.27969	464	16.5245	
465	3.86093	465	4.27969	465	16.5236	
466	3.86078	466	4.27969	466	16.5229	
467	3.86063	467	4.27969	467	16.5223	
468	3.86055	468	4.27969	468	16.522	
469	3.86032	469	4.27969	469	16.521	
470	3.86024	470	4.27969	470	16.5206	
471	3.86002	471	4.27969	471	16.5197	
472	3.85986	472	4.27969	472	16.519	
473	3.85971	473	4.27969	473	16.5184	
474	3.85963	474	4.27969	474	16.518	
475	3.85948	475	4.27969	475	16.5174	
476	3.85933	476	4.27969	476	16.5167	
477	3.85918	477	4.27969	477	16.5161	
478	3.85904	478	4.27954	478	16.5149	
479	3.85889	479	4.27969	479	16.5149	
480	3.85873	480	4.27969	480	16.5142	
481	3.85858	481	4.27969	481	16.5135	
482	3.85843	482	4.27954	482	16.5123	
483	3.85828	483	4.27969	483	16.5122	
484	3.85805	484	4.27969	484	16.5113	
485	3.85789	485	4.27969	485	16.5106	
486	3.85782	486	4.27969	486	16.5103	
487	3.85759	487	4.27969	487	16.5093	
488	3.85751	488	4.27969	488	16.5089	
489	3.85728	489	4.27969	489	16.508	
490	3.85721	490	4.27954	490	16.5071	
491	3.85699	491	4.27969	491	16.5067	
492	3.85684	492	4.27969	492	16.5061	
493	3.85669	493	4.27969	493	16.5054	
494	3.85654	494	4.27969	494	16.5048	
495	3.85638	495	4.27969	495	16.5041	
496	3.85623	496	4.27969	496	16.5035	
497	3.85608	497	4.27969	497	16.5028	
498	3.85593	498	4.27954	498	16.5016	
499	3.85577	499	4.27969	499	16.5015	
500	3.85562	500	4.27969	500	16.5009	
501	3.85547	501	4.27969	501	16.5002	
502	3.85532	502	4.27969	502	16.4996	
503	3.85516	503	4.27969	503	16.4989	
504	3.85495	504	4.27969	504	16.498	
505	3.85487	505	4.27969	505	16.4976	
506	3.85464	506	4.27954	506	16.4961	
507	3.85457	507	4.27969	507	16.4964	
508	3.85442	508	4.27969	508	16.4957	
509	3.85426	509	4.27954	509	16.4945	
510	3.85411	510	4.27954	510	16.4938	
511	3.85388	511	4.27969	511	16.4934	
512	3.85381	512	4.27969	512	16.4931	
513	3.85358	513	4.27969	513	16.4921	
514	3.85342	514	4.27969	514	16.4914	
515	3.85327	515	4.27969	515	16.4908	
516	3.85313	516	4.27969	516	16.4902	
517	3.85298	517	4.27954	517	16.489	
518	3.85283	518	4.27969	518	16.4889	
519	3.85268	519	4.27969	519	16.4883	
520	3.85252	520	4.27969	520	16.4876	
521	3.85237	521	4.27954	521	16.4864	
522	3.85222	522	4.27954	522	16.4857	
523	3.85207	523	4.27969	523	16.4857	
524	3.85191	524	4.27969	524	16.485	
525	3.85176	525	4.27954	525	16.4838	
526	3.85153	526	4.27969	526	16.4834	
527	3.85146	527	4.27969	527	16.4831	
528	3.85123	528	4.27969	528	16.4821	
529	3.85109	529	4.27954	529	16.4809	
530	3.85101	530	4.27969	530	16.4811	
531	3.85078	531	4.27969	531	16.4801	
532	3.85063	532	4.27969	532	16.4795	
533	3.85048	533	4.27954	533	16.4783	
