Start Voltage: 4.1448
Time (s) - Voltage	Voltage - Voltage	Time (s) - Current	Current - Current	Time (s) - Power	Power - Power	
0	3.98318	0	2.9994	0	11.9472	
1	3.97758	1	2.99956	1	11.931	
2	3.97456	2	2.9994	2	11.9213	
3	3.97107	3	2.99956	3	11.9115	
4	3.96881	4	2.9994	4	11.904	
5	3.96608	5	2.99956	5	11.8965	
6	3.96419	6	2.99956	6	11.8908	
7	3.96176	7	2.99956	7	11.8835	
8	3.96017	8	2.99956	8	11.8788	
9	3.95836	9	2.99956	9	11.8733	
10	3.95624	10	2.99956	10	11.867	
11	3.95488	11	2.99956	11	11.8629	
12	3.95306	12	2.99956	12	11.8574	
13	3.95177	13	2.99956	13	11.8536	
14	3.95018	14	2.99956	14	11.8488	
15	3.94897	15	2.99956	15	11.8452	
16	3.94753	16	2.99956	16	11.8409	
17	3.9464	17	2.99956	17	11.8375	
18	3.94504	18	2.9994	18	11.8328	
19	3.94397	19	2.99956	19	11.8302	
20	3.94299	20	2.99956	20	11.8272	
21	3.9417	21	2.99956	21	11.8234	
22	3.9408	22	2.99956	22	11.8207	
23	3.93958	23	2.9994	23	11.8164	
24	3.93875	24	2.99956	24	11.8145	
25	3.93761	25	2.99956	25	11.8111	
26	3.93686	26	2.99956	26	11.8088	
27	3.93579	27	2.99956	27	11.8056	
28	3.93497	28	2.99956	28	11.8032	
29	3.93398	29	2.9994	29	11.7996	
30	3.93323	30	2.99956	30	11.798	
31	3.93246	31	2.99956	31	11.7956	
32	3.93156	32	2.9994	32	11.7923	
33	3.93088	33	2.99956	33	11.7909	
34	3.92996	34	2.99956	34	11.7882	
35	3.92937	35	2.9994	35	11.7858	
36	3.92853	36	2.99956	36	11.7839	
37	3.92784	37	2.99956	37	11.7818	
38	3.92702	38	2.99956	38	11.7793	
39	3.92641	39	2.99956	39	11.7775	
40	3.92566	40	2.9994	40	11.7746	
41	3.92505	41	2.9994	41	11.7728	
42	3.92451	42	2.99956	42	11.7718	
43	3.92383	43	2.9994	43	11.7691	
44	3.92323	44	2.9994	44	11.7673	
45	3.92255	45	2.9994	45	11.7653	
46	3.92201	46	2.99956	46	11.7643	
47	3.92134	47	2.9994	47	11.7617	
48	3.92088	48	2.9994	48	11.7603	
49	3.9202	49	2.9994	49	11.7582	
50	3.91975	50	2.9994	50	11.7569	
51	3.91922	51	2.9994	51	11.7553	
52	3.91861	52	2.99956	52	11.7541	
53	3.91815	53	2.99956	53	11.7527	
54	3.91756	54	2.9994	54	11.7503	
55	3.91718	55	2.9994	55	11.7492	
56	3.91656	56	2.9994	56	11.7473	
57	3.91611	57	2.99956	57	11.7466	
58	3.91559	58	2.99956	58	11.745	
59	3.91513	59	2.9994	59	11.743	
60	3.9146	60	2.9994	60	11.7415	
61	3.91422	61	2.99956	61	11.7409	
62	3.9137	62	2.99956	62	11.7394	
63	3.91331	63	2.99956	63	11.7382	
64	3.91293	64	2.9994	64	11.7364	
65	3.9124	65	2.99956	65	11.7355	
66	3.91202	66	2.99956	66	11.7343	
67	3.91158	67	2.99956	67	11.733	
68	3.91119	68	2.9994	68	11.7312	
69	3.91074	69	2.99956	69	11.7305	
70	3.91035	70	2.9994	70	11.7287	
71	3.90991	71	2.9994	71	11.7274	
72	3.90953	72	2.99956	72	11.7269	
73	3.90923	73	2.99956	73	11.726	
74	3.90877	74	2.99956	74	11.7246	
75	3.90839	75	2.99956	75	11.7235	
76	3.90802	76	2.9994	76	11.7217	
77	3.90764	77	2.99956	77	11.7212	
78	3.90726	78	2.99956	78	11.7201	
79	3.90688	79	2.9994	79	11.7183	
80	3.90649	80	2.99956	80	11.7178	
81	3.90619	81	2.9994	81	11.7162	
82	3.90575	82	2.9994	82	11.7149	
83	3.90552	83	2.99956	83	11.7148	
84	3.90521	84	2.99956	84	11.7139	
85	3.90475	85	2.99956	85	11.7125	
86	3.90453	86	2.9994	86	11.7112	
87	3.90416	87	2.99956	87	11.7108	
88	3.90385	88	2.9994	88	11.7092	
89	3.90347	89	2.99956	89	11.7087	
90	3.90317	90	2.9994	90	11.7072	
91	3.90279	91	2.99956	91	11.7067	
92	3.90256	92	2.9994	92	11.7053	
93	3.90219	93	2.99956	93	11.7049	
94	3.90196	94	2.9994	94	11.7035	
95	3.90158	95	2.99956	95	11.703	
96	3.90128	96	2.9994	96	11.7015	
97	3.90105	97	2.99956	97	11.7014	
98	3.90067	98	2.99956	98	11.7003	
99	3.90044	99	2.99956	99	11.6996	
100	3.90015	100	2.9994	100	11.6981	
101	3.89984	101	2.99956	101	11.6978	
102	3.89954	102	2.9994	102	11.6963	
103	3.89931	103	2.99956	103	11.6962	
104	3.899	104	2.9994	104	11.6947	
105	3.8987	105	2.99956	105	11.6944	
106	3.89847	106	2.99956	106	11.6937	
107	3.89818	107	2.99956	107	11.6928	
108	3.89795	108	2.99956	108	11.6921	
109	3.89764	109	2.99956	109	11.6912	
110	3.89734	110	2.99956	110	11.6903	
111	3.89703	111	2.9994	111	11.6888	
112	3.8968	112	2.99956	112	11.6887	
113	3.8965	113	2.9994	113	11.6872	
114	3.89629	114	2.99956	114	11.6872	
115	3.89598	115	2.9994	115	11.6856	
116	3.89575	116	2.99956	116	11.6855	
117	3.89552	117	2.99956	117	11.6848	
118	3.89529	118	2.9994	118	11.6835	
119	3.89507	119	2.99956	119	11.6835	
120	3.89476	120	2.9994	120	11.6819	
121	3.89453	121	2.99956	121	11.6819	
122	3.89424	122	2.99956	122	11.681	
123	3.89409	123	2.9994	123	11.6799	
124	3.89378	124	2.99956	124	11.6796	
125	3.89355	125	2.9994	125	11.6783	
126	3.89325	126	2.99956	126	11.678	
127	3.8931	127	2.99956	127	11.6776	
128	3.89287	128	2.9994	128	11.6763	
129	3.89256	129	2.99956	129	11.676	
130	3.89241	130	2.9994	130	11.6749	
131	3.89212	131	2.99956	131	11.6746	
132	3.89197	132	2.99956	132	11.6742	
133	3.89166	133	2.9994	133	11.6726	
134	3.89151	134	2.99956	134	11.6728	
135	3.8912	135	2.99956	135	11.6719	
136	3.89105	136	2.99956	136	11.6714	
137	3.89075	137	2.99956	137	11.6705	
138	3.89059	138	2.99956	138	11.6701	
139	3.89044	139	2.9994	139	11.669	
140	3.89015	140	2.99956	140	11.6687	
141	3.89	141	2.99956	141	11.6683	
142	3.88977	142	2.99956	142	11.6676	
143	3.88954	143	2.99956	143	11.6669	
144	3.88931	144	2.9994	144	11.6656	
145	3.88908	145	2.99956	145	11.6655	
146	3.88885	146	2.99956	146	11.6648	
147	3.8887	147	2.9994	147	11.6638	
148	3.88841	148	2.99956	148	11.6635	
149	3.88826	149	2.99956	149	11.6631	
150	3.88811	150	2.9994	150	11.662	
151	3.88788	151	2.99956	151	11.6619	
152	3.88765	152	2.99956	152	11.6612	
153	3.88742	153	2.99956	153	11.6605	
154	3.88727	154	2.99956	154	11.6601	
155	3.88704	155	2.99956	155	11.6594	
156	3.88689	156	2.99956	156	11.659	
157	3.88658	157	2.99956	157	11.658	
158	3.88644	158	2.99956	158	11.6576	
159	3.88622	159	2.99956	159	11.657	
160	3.88606	160	2.99956	160	11.6565	
161	3.88591	161	2.99956	161	11.656	
162	3.88568	162	2.99956	162	11.6553	
163	3.88553	163	2.99956	163	11.6549	
164	3.8853	164	2.99956	164	11.6542	
165	3.88507	165	2.99956	165	11.6535	
166	3.88484	166	2.99956	166	11.6528	
167	3.88469	167	2.99956	167	11.6524	
168	3.88448	168	2.99956	168	11.6517	
169	3.88432	169	2.99956	169	11.6513	
170	3.88409	170	2.99956	170	11.6506	
171	3.88394	171	2.99956	171	11.6501	
172	3.88379	172	2.99956	172	11.6497	
173	3.88356	173	2.99956	173	11.649	
174	3.88341	174	2.99956	174	11.6485	
175	3.88318	175	2.99956	175	11.6478	
176	3.88303	176	2.99956	176	11.6474	
177	3.88295	177	2.99956	177	11.6471	
178	3.88333	178	2.99956	178	11.6483	
179	3.88303	179	2.99956	179	11.6474	
180	3.88251	180	2.99956	180	11.6458	
181	3.88228	181	2.99956	181	11.6451	
182	3.88213	182	2.99956	182	11.6447	
183	3.88205	183	2.99956	183	11.6444	
184	3.88182	184	2.99956	184	11.6438	
185	3.88167	185	2.99956	185	11.6433	
186	3.88144	186	2.99956	186	11.6426	
187	3.88129	187	2.99956	187	11.6422	
188	3.88106	188	2.99956	188	11.6415	
189	3.88098	189	2.99956	189	11.6412	
190	3.88075	190	2.99956	190	11.6405	
191	3.88062	191	2.99956	191	11.6402	
192	3.88046	192	2.99956	192	11.6397	
193	3.88031	193	2.99956	193	11.6392	
194	3.88008	194	2.99956	194	11.6385	
195	3.87993	195	2.99956	195	11.6381	
196	3.87978	196	2.99956	196	11.6376	
197	3.87955	197	2.99956	197	11.6369	
198	3.87939	198	2.99956	198	11.6365	
199	3.87924	199	2.99956	199	11.636	
200	3.87909	200	2.99956	200	11.6356	
201	3.87886	201	2.99956	201	11.6349	
202	3.87871	202	2.99956	202	11.6344	
203	3.87849	203	2.99956	203	11.6338	
204	3.87842	204	2.99956	204	11.6336	
205	3.87827	205	2.99956	205	11.6331	
206	3.87804	206	2.99956	206	11.6324	
207	3.87788	207	2.99956	207	11.6319	
208	3.87773	208	2.99956	208	11.6315	
209	3.87758	209	2.99956	209	11.631	
210	3.87735	210	2.99956	210	11.6303	
211	3.8772	211	2.99956	211	11.6299	
212	3.87704	212	2.99956	212	11.6294	
213	3.87689	213	2.99956	213	11.629	
214	3.87668	214	2.99956	214	11.6283	
215	3.87653	215	2.99956	215	11.6279	
216	3.87645	216	2.99956	216	11.6276	
217	3.87622	217	2.99971	217	11.6275	
218	3.87607	218	2.99956	218	11.6265	
219	3.87599	219	2.99956	219	11.6263	
220	3.87584	220	2.99956	220	11.6258	
221	3.87569	221	2.99956	221	11.6254	
222	3.87553	222	2.99956	222	11.6249	
223	3.87538	223	2.99956	223	11.6244	
224	3.87523	224	2.99956	224	11.624	
225	3.875	225	2.99956	225	11.6233	
226	3.87485	226	2.99956	226	11.6228	
227	3.87471	227	2.99956	227	11.6224	
228	3.87456	228	2.99956	228	11.622	
229	3.8744	229	2.99956	229	11.6215	
230	3.87425	230	2.99956	230	11.621	
231	3.8741	231	2.99956	231	11.6206	
232	3.87387	232	2.99971	232	11.6205	
233	3.87372	233	2.99956	233	11.6195	
234	3.87357	234	2.99956	234	11.619	
235	3.87341	235	2.99956	235	11.6185	
236	3.87326	236	2.99956	236	11.6181	
237	3.87311	237	2.99956	237	11.6176	
238	3.87296	238	2.99956	238	11.6172	
239	3.8728	239	2.99956	239	11.6167	
240	3.87267	240	2.99971	240	11.6169	
241	3.87251	241	2.99956	241	11.6158	
242	3.87236	242	2.99956	242	11.6154	
243	3.87213	243	2.99956	243	11.6147	
244	3.87198	244	2.99956	244	11.6142	
245	3.87183	245	2.99956	245	11.6138	
246	3.87167	246	2.99956	246	11.6133	
247	3.87144	247	2.99956	247	11.6126	
248	3.87137	248	2.99956	248	11.6124	
249	3.87122	249	2.99956	249	11.612	
250	3.87106	250	2.99956	250	11.6115	
251	3.87091	251	2.99956	251	11.611	
252	3.8707	252	2.99956	252	11.6104	
253	3.87062	253	2.99956	253	11.6102	
254	3.87047	254	2.99956	254	11.6097	
255	3.87032	255	2.99956	255	11.6093	
256	3.87009	256	2.99956	256	11.6086	
257	3.86993	257	2.99956	257	11.6081	
258	3.86978	258	2.99956	258	11.6076	
259	3.86963	259	2.99956	259	11.6072	
260	3.86948	260	2.99956	260	11.6067	
261	3.86932	261	2.99956	261	11.6063	
262	3.86917	262	2.99956	262	11.6058	
263	3.86902	263	2.99971	263	11.6059	
264	3.86887	264	2.99956	264	11.6049	
265	3.86873	265	2.99956	265	11.6045	
266	3.86858	266	2.99956	266	11.604	
267	3.86842	267	2.99971	267	11.6041	
268	3.86827	268	2.99956	268	11.6031	
269	3.86804	269	2.99956	269	11.6024	
270	3.86797	270	2.99956	270	11.6022	
271	3.86781	271	2.99971	271	11.6023	
272	3.86758	272	2.99956	272	11.601	
273	3.86743	273	2.99956	273	11.6006	
274	3.86728	274	2.99956	274	11.6001	
275	3.86713	275	2.99956	275	11.5997	
276	3.86697	276	2.99956	276	11.5992	
277	3.86684	277	2.99956	277	11.5988	
278	3.86668	278	2.99971	278	11.5989	
279	3.86653	279	2.99971	279	11.5985	
280	3.86638	280	2.99956	280	11.5974	
281	3.86623	281	2.99956	281	11.597	
282	3.86615	282	2.99956	282	11.5967	
283	3.86592	283	2.99971	283	11.5966	
284	3.86577	284	2.99956	284	11.5956	
285	3.86562	285	2.99956	285	11.5952	
286	3.86546	286	2.99956	286	11.5947	
287	3.86531	287	2.99971	287	11.5948	
288	3.86516	288	2.99956	288	11.5938	
289	3.86501	289	2.99956	289	11.5933	
290	3.86487	290	2.99971	290	11.5935	
291	3.86472	291	2.99971	291	11.593	
292	3.86456	292	2.99956	292	11.592	
293	3.86441	293	2.99956	293	11.5915	
294	3.86426	294	2.99971	294	11.5917	
295	3.86411	295	2.99971	295	11.5912	
296	3.86395	296	2.99956	296	11.5901	
297	3.8638	297	2.99956	297	11.5897	
298	3.86365	298	2.99971	298	11.5898	
299	3.86349	299	2.99971	299	11.5893	
300	3.86334	300	2.99956	300	11.5883	
301	3.86319	301	2.99956	301	11.5879	
302	3.86304	302	2.99956	302	11.5874	
303	3.8629	303	2.99956	303	11.587	
304	3.86275	304	2.99956	304	11.5866	
305	3.86259	305	2.99956	305	11.5861	
306	3.86244	306	2.99956	306	11.5856	
307	3.86214	307	2.99956	307	11.5847	
308	3.86198	308	2.99956	308	11.5842	
309	3.86183	309	2.99956	309	11.5838	
310	3.8616	310	2.99956	310	11.5831	
311	3.86145	311	2.99956	311	11.5827	
312	3.86137	312	2.99956	312	11.5824	
313	3.86122	313	2.99956	313	11.582	
314	3.86107	314	2.99971	314	11.5821	
315	3.86101	315	2.99956	315	11.5813	
316	3.86078	316	2.99956	316	11.5806	
317	3.86063	317	2.99956	317	11.5802	
318	3.86047	318	2.99971	318	11.5803	
319	3.86032	319	2.99956	319	11.5793	
320	3.86017	320	2.99956	320	11.5788	
321	3.86002	321	2.99956	321	11.5784	
322	3.85986	322	2.99971	322	11.5785	
323	3.85971	323	2.99956	323	11.5774	
324	3.85956	324	2.99956	324	11.577	
325	3.85941	325	2.99956	325	11.5765	
326	3.85925	326	2.99971	326	11.5766	
327	3.8591	327	2.99956	327	11.5756	
328	3.85889	328	2.99956	328	11.575	
329	3.85873	329	2.99971	329	11.5751	
330	3.85851	330	2.99956	330	11.5738	
331	3.85828	331	2.99956	331	11.5731	
332	3.85812	332	2.99971	332	11.5732	
333	3.85797	333	2.99971	333	11.5728	
334	3.85789	334	2.99956	334	11.572	
335	3.85774	335	2.99956	335	11.5715	
336	3.85751	336	2.99971	336	11.5714	
337	3.85736	337	2.99956	337	11.5704	
338	3.85713	338	2.99956	338	11.5697	
339	3.85699	339	2.99971	339	11.5699	
340	3.85562	340	2.99971	340	11.5657	
341	3.85555	341	2.99971	341	11.5655	
342	3.85547	342	2.99956	342	11.5647	
343	3.85532	343	2.99956	343	11.5643	
344	3.85516	344	2.99956	344	11.5638	
345	3.85503	345	2.99971	345	11.564	
346	3.85487	346	2.99956	346	11.5629	
347	3.85472	347	2.99956	347	11.5625	
348	3.85464	348	2.99956	348	11.5622	
349	3.85449	349	2.99971	349	11.5624	
350	3.85434	350	2.99956	350	11.5613	
351	3.85419	351	2.99956	351	11.5609	
352	3.85403	352	2.99956	352	11.5604	
353	3.85388	353	2.99971	353	11.5605	
354	3.85373	354	2.99971	354	11.5601	
355	3.85358	355	2.99956	355	11.559	
356	3.8535	356	2.99956	356	11.5588	
357	3.8535	357	2.99956	357	11.5588	
358	3.85335	358	2.99971	358	11.5589	
359	3.8532	359	2.99971	359	11.5585	
360	3.85306	360	2.99956	360	11.5575	
361	3.85298	361	2.99956	361	11.5572	
362	3.85275	362	2.99956	362	11.5566	
363	3.85268	363	2.99971	363	11.5569	
364	3.85245	364	2.99956	364	11.5557	
365	3.85237	365	2.99956	365	11.5554	
366	3.85214	366	2.99956	366	11.5547	
367	3.85207	367	2.99971	367	11.5551	
368	3.85191	368	2.99971	368	11.5546	
369	3.85176	369	2.99956	369	11.5536	
370	3.85161	370	2.99956	370	11.5531	
371	3.85146	371	2.99971	371	11.5533	
372	3.8513	372	2.99971	372	11.5528	
373	3.85117	373	2.99956	373	11.5518	
374	3.85101	374	2.99956	374	11.5513	
375	3.85086	375	2.99971	375	11.5515	
376	3.85071	376	2.99971	376	11.551	
377	3.85056	377	2.99956	377	11.55	
378	3.8504	378	2.99956	378	11.5495	
379	3.85033	379	2.99971	379	11.5499	
380	3.8501	380	2.99971	380	11.5492	
381	3.84995	381	2.99956	381	11.5482	
382	3.84979	382	2.99956	382	11.5477	
383	3.84964	383	2.99971	383	11.5478	
384	3.84949	384	2.99971	384	11.5474	
385	3.84933	385	2.99956	385	11.5463	
386	3.8492	386	2.99956	386	11.5459	
387	3.84912	387	2.99971	387	11.5462	
388	3.84889	388	2.99971	388	11.5456	
389	3.84882	389	2.99956	389	11.5448	
390	3.84866	390	2.99956	390	11.5443	
391	3.84851	391	2.99971	391	11.5444	
392	3.84836	392	2.99971	392	11.544	
393	3.84821	393	2.99956	393	11.5429	
394	3.84805	394	2.99956	394	11.5425	
395	3.8479	395	2.99956	395	11.542	
396	3.84775	396	2.99971	396	11.5421	
397	3.8476	397	2.99956	397	11.5411	
398	3.84752	398	2.99956	398	11.5409	
399	3.84729	399	2.99971	399	11.5408	
400	3.84723	400	2.99971	400	11.5406	
401	3.84708	401	2.99971	401	11.5401	
402	3.84692	402	2.99956	402	11.5391	
403	3.84677	403	2.99956	403	11.5386	
404	3.84662	404	2.99971	404	11.5387	
405	3.84647	405	2.99971	405	11.5383	
406	3.84631	406	2.99956	406	11.5372	
407	3.84624	407	2.99956	407	11.537	
408	3.84608	408	2.99971	408	11.5371	
409	3.84593	409	2.99971	409	11.5367	
410	3.8457	410	2.99956	410	11.5354	
411	3.8457	411	2.99956	411	11.5354	
412	3.84563	412	2.99956	412	11.5352	
413	3.84547	413	2.99971	413	11.5353	
414	3.84532	414	2.99971	414	11.5348	
415	3.84518	415	2.99956	415	11.5338	
416	3.84503	416	2.99956	416	11.5334	
417	3.84488	417	2.99971	417	11.5335	
418	3.8448	418	2.99971	418	11.5333	
419	3.84465	419	2.99956	419	11.5323	
420	3.8445	420	2.99956	420	11.5318	
421	3.84435	421	2.99956	421	11.5314	
422	3.84427	422	2.99971	422	11.5317	
423	3.84412	423	2.99971	423	11.5312	
424	3.84396	424	2.99956	424	11.5302	
425	3.84381	425	2.99956	425	11.5297	
426	3.84366	426	2.99971	426	11.5299	
427	3.84358	427	2.99971	427	11.5296	
428	3.84343	428	2.99971	428	11.5292	
429	3.84335	429	2.99956	429	11.5284	
430	3.84314	430	2.99956	430	11.5277	
431	3.84306	431	2.99971	431	11.5281	
432	3.84283	432	2.99971	432	11.5274	
433	3.84276	433	2.99956	433	11.5266	
434	3.84261	434	2.99956	434	11.5261	
435	3.84245	435	2.99971	435	11.5262	
436	3.84238	436	2.99971	436	11.526	
437	3.84215	437	2.99956	437	11.5248	
438	3.842	438	2.99956	438	11.5243	
439	3.84184	439	2.99971	439	11.5244	
440	3.84169	440	2.99971	440	11.524	
441	3.84146	441	2.99956	441	11.5227	
442	3.8414	442	2.99956	442	11.5225	
443	3.84117	443	2.99956	443	11.5218	
444	3.84102	444	2.99971	444	11.5219	
445	3.84094	445	2.99956	445	11.5211	
446	3.84071	446	2.99956	446	11.5204	
447	3.84056	447	2.99971	447	11.5206	
448	3.84033	448	2.99956	448	11.5193	
449	3.84018	449	2.99956	449	11.5189	
450	3.84003	450	2.99971	450	11.519	
451	3.83987	451	2.99971	451	11.5185	
452	3.83965	452	2.99956	452	11.5173	
453	3.83957	453	2.99956	453	11.517	
454	3.83936	454	2.99956	454	11.5164	
455	3.83928	455	2.99971	455	11.5167	
456	3.83913	456	2.99956	456	11.5157	
457	3.83897	457	2.99956	457	11.5152	
458	3.83882	458	2.99971	458	11.5153	
459	3.83859	459	2.99971	459	11.5147	
460	3.83844	460	2.99956	460	11.5136	
461	3.83829	461	2.99956	461	11.5132	
462	3.83813	462	2.99971	462	11.5133	
463	3.83791	463	2.99956	463	11.512	
464	3.83783	464	2.99956	464	11.5118	
465	3.8376	465	2.99971	465	11.5117	
466	3.83746	466	2.99971	466	11.5113	
467	3.83739	467	2.99971	467	11.5111	
468	3.83716	468	2.99956	468	11.5098	
469	3.83708	469	2.99956	469	11.5096	
470	3.83685	470	2.99971	470	11.5094	
471	3.8367	471	2.99956	471	11.5084	
472	3.83655	472	2.99956	472	11.508	
473	3.8364	473	2.99971	473	11.5081	
474	3.83624	474	2.99971	474	11.5076	
475	3.83609	475	2.99971	475	11.5072	
476	3.83586	476	2.99956	476	11.5059	
477	3.83571	477	2.99971	477	11.506	
478	3.83563	478	2.99971	478	11.5058	
479	3.83542	479	2.99956	479	11.5046	
480	3.83527	480	2.99971	480	11.5047	
481	3.83504	481	2.99971	481	11.504	
482	3.83488	482	2.99956	482	11.503	
483	3.83458	483	2.99971	483	11.5026	
484	3.83443	484	2.99971	484	11.5022	
485	3.8342	485	2.99956	485	11.5009	
486	3.83405	486	2.99956	486	11.5005	
487	3.83389	487	2.99971	487	11.5006	
488	3.83374	488	2.99971	488	11.5001	
489	3.83359	489	2.99956	489	11.4991	
490	3.83337	490	2.99971	490	11.499	
491	3.83322	491	2.99971	491	11.4985	
492	3.83307	492	2.99956	492	11.4975	
493	3.83292	493	2.99956	493	11.4971	
494	3.83269	494	2.99971	494	11.497	
495	3.83261	495	2.99971	495	11.4967	
496	3.83238	496	2.99956	496	11.4955	
497	3.83223	497	2.99956	497	11.495	
498	3.832	498	2.99971	498	11.4949	
499	3.83192	499	2.99971	499	11.4946	
500	3.83177	500	2.99956	500	11.4936	
501	3.83156	501	2.99971	501	11.4936	
502	3.83141	502	2.99971	502	11.4931	
503	3.83118	503	2.99956	503	11.4919	
504	3.8311	504	2.99956	504	11.4916	
505	3.83087	505	2.99971	505	11.4915	
506	3.83072	506	2.99971	506	11.491	
507	3.83049	507	2.99956	507	11.4898	
508	3.83041	508	2.99956	508	11.4895	
509	3.83018	509	2.99971	509	11.4894	
510	3.83003	510	2.99956	510	11.4884	
511	3.82988	511	2.99956	511	11.488	
512	3.82973	512	2.99971	512	11.4881	
513	3.82959	513	2.99971	513	11.4877	
514	3.82936	514	2.99956	514	11.4864	
515	3.82921	515	2.99956	515	11.4859	
516	3.82906	516	2.99971	516	11.4861	
517	3.8289	517	2.99971	517	11.4856	
518	3.82867	518	2.99956	518	11.4843	
519	3.82852	519	2.99971	519	11.4844	
520	3.82837	520	2.99971	520	11.484	
521	3.82822	521	2.99956	521	11.483	
522	3.82799	522	2.99971	522	11.4829	
523	3.82784	523	2.99971	523	11.4824	
524	3.82768	524	2.99971	524	11.4819	
525	3.82747	525	2.99956	525	11.4807	
526	3.82732	526	2.99971	526	11.4809	
527	3.82716	527	2.99971	527	11.4804	
528	3.82693	528	2.99956	528	11.4791	
529	3.82678	529	2.99971	529	11.4792	
530	3.82663	530	2.99971	530	11.4788	
531	3.8264	531	2.99956	531	11.4775	
532	3.82625	532	2.99956	532	11.4771	
533	3.82602	533	2.99971	533	11.477	
534	3.82579	534	2.99956	534	11.4757	
535	3.82565	535	2.99956	535	11.4753	
