Start Voltage: 4.149
Time (s) - Voltage	Voltage - Voltage	Time (s) - Current	Current - Current	Time (s) - Power	Power - Power	
0	4.00052	0	4.27954	0	17.1204	
1	3.99545	1	4.27954	1	17.0987	
2	3.99257	2	4.27954	2	17.0864	
3	3.99001	3	4.27954	3	17.0754	
4	3.98697	4	4.27954	4	17.0624	
5	3.98485	5	4.27954	5	17.0533	
6	3.98236	6	4.27954	6	17.0427	
7	3.98055	7	4.27954	7	17.0349	
8	3.97827	8	4.27954	8	17.0252	
9	3.97668	9	4.27954	9	17.0184	
10	3.97464	10	4.27954	10	17.0096	
11	3.97319	11	4.27954	11	17.0034	
12	3.9713	12	4.27954	12	16.9953	
13	3.96994	13	4.27954	13	16.9895	
14	3.96866	14	4.27954	14	16.984	
15	3.96698	15	4.27954	15	16.9768	
16	3.96577	16	4.27954	16	16.9717	
17	3.96419	17	4.27954	17	16.9649	
18	3.96304	18	4.27954	18	16.96	
19	3.96161	19	4.27954	19	16.9539	
20	3.96056	20	4.27954	20	16.9494	
21	3.95911	21	4.27954	21	16.9432	
22	3.95813	22	4.27954	22	16.939	
23	3.95685	23	4.27954	23	16.9335	
24	3.95586	24	4.27939	24	16.9287	
25	3.95488	25	4.27954	25	16.9251	
26	3.95366	26	4.27954	26	16.9198	
27	3.95284	27	4.27954	27	16.9163	
28	3.95161	28	4.27954	28	16.9111	
29	3.95079	29	4.27954	29	16.9076	
30	3.94965	30	4.27954	30	16.9027	
31	3.94882	31	4.27954	31	16.8991	
32	3.94775	32	4.27954	32	16.8946	
33	3.94701	33	4.27954	33	16.8914	
34	3.94601	34	4.27954	34	16.8871	
35	3.94527	35	4.27954	35	16.8839	
36	3.9445	36	4.27954	36	16.8806	
37	3.94351	37	4.27954	37	16.8764	
38	3.94284	38	4.27954	38	16.8735	
39	3.94193	39	4.27954	39	16.8696	
40	3.94125	40	4.27954	40	16.8667	
41	3.94034	41	4.27954	41	16.8628	
42	3.93965	42	4.27954	42	16.8599	
43	3.93883	43	4.27954	43	16.8564	
44	3.93822	44	4.27954	44	16.8538	
45	3.93739	45	4.27954	45	16.8502	
46	3.93678	46	4.27954	46	16.8476	
47	3.93617	47	4.27954	47	16.845	
48	3.93542	48	4.27954	48	16.8418	
49	3.93481	49	4.27939	49	16.8386	
50	3.93405	50	4.27939	50	16.8353	
51	3.93353	51	4.27954	51	16.8337	
52	3.93277	52	4.27954	52	16.8304	
53	3.93224	53	4.27954	53	16.8282	
54	3.93156	54	4.27954	54	16.8253	
55	3.93103	55	4.27954	55	16.823	
56	3.93027	56	4.27954	56	16.8197	
57	3.92981	57	4.27954	57	16.8178	
58	3.92929	58	4.27954	58	16.8156	
59	3.92868	59	4.27954	59	16.8129	
60	3.92815	60	4.27954	60	16.8107	
61	3.92755	61	4.27954	61	16.8081	
62	3.92709	62	4.27954	62	16.8061	
63	3.92641	63	4.27954	63	16.8032	
64	3.92595	64	4.27954	64	16.8013	
65	3.92535	65	4.27954	65	16.7987	
66	3.9249	66	4.27954	66	16.7968	
67	3.92436	67	4.27954	67	16.7945	
68	3.9239	68	4.27954	68	16.7925	
69	3.92346	69	4.27954	69	16.7906	
70	3.92293	70	4.27954	70	16.7883	
71	3.92247	71	4.27954	71	16.7864	
72	3.92194	72	4.27954	72	16.7841	
73	3.92157	73	4.27954	73	16.7825	
74	3.92104	74	4.27954	74	16.7802	
75	3.92065	75	4.27954	75	16.7786	
76	3.92012	76	4.27954	76	16.7763	
77	3.91975	77	4.27954	77	16.7747	
78	3.91922	78	4.27954	78	16.7725	
79	3.91884	79	4.27954	79	16.7708	
80	3.91853	80	4.27954	80	16.7695	
81	3.918	81	4.27954	81	16.7672	
82	3.91771	82	4.27954	82	16.766	
83	3.91718	83	4.27954	83	16.7637	
84	3.91687	84	4.27954	84	16.7624	
85	3.91641	85	4.27954	85	16.7604	
86	3.91603	86	4.27954	86	16.7588	
87	3.91559	87	4.27954	87	16.7569	
88	3.91528	88	4.27954	88	16.7556	
89	3.91483	89	4.27954	89	16.7537	
90	3.91452	90	4.27954	90	16.7523	
91	3.91414	91	4.27954	91	16.7507	
92	3.91377	92	4.27954	92	16.7491	
93	3.91347	93	4.27954	93	16.7479	
94	3.91301	94	4.27954	94	16.7459	
95	3.9127	95	4.27954	95	16.7446	
96	3.91232	96	4.27954	96	16.7429	
97	3.91202	97	4.27954	97	16.7416	
98	3.91158	98	4.27954	98	16.7398	
99	3.91135	99	4.27954	99	16.7388	
100	3.91096	100	4.27954	100	16.7371	
101	3.91066	101	4.27954	101	16.7358	
102	3.91035	102	4.27954	102	16.7345	
103	3.90999	103	4.27954	103	16.733	
104	3.90968	104	4.27954	104	16.7316	
105	3.9093	105	4.27954	105	16.73	
106	3.90907	106	4.27954	106	16.729	
107	3.90869	107	4.27939	107	16.7268	
108	3.90839	108	4.27954	108	16.7261	
109	3.9081	109	4.27954	109	16.7249	
110	3.90787	110	4.27954	110	16.7239	
111	3.90749	111	4.27954	111	16.7223	
112	3.90718	112	4.27954	112	16.7209	
113	3.90688	113	4.27954	113	16.7196	
114	3.90657	114	4.27954	114	16.7183	
115	3.90634	115	4.27954	115	16.7173	
116	3.90605	116	4.27954	116	16.7161	
117	3.90582	117	4.27954	117	16.7151	
118	3.90544	118	4.27954	118	16.7135	
119	3.90521	119	4.27954	119	16.7125	
120	3.90491	120	4.27939	120	16.7106	
121	3.90468	121	4.27954	121	16.7102	
122	3.90437	122	4.27954	122	16.7089	
123	3.90416	123	4.27954	123	16.708	
124	3.90393	124	4.27954	124	16.707	
125	3.90363	125	4.27954	125	16.7057	
126	3.9034	126	4.27954	126	16.7048	
127	3.90309	127	4.27954	127	16.7034	
128	3.90286	128	4.27954	128	16.7024	
129	3.90263	129	4.27939	129	16.7009	
130	3.9024	130	4.27954	130	16.7005	
131	3.90211	131	4.27954	131	16.6992	
132	3.90189	132	4.27954	132	16.6983	
133	3.90158	133	4.27954	133	16.697	
134	3.90135	134	4.27954	134	16.696	
135	3.9012	135	4.27954	135	16.6953	
136	3.90089	136	4.27954	136	16.694	
137	3.90067	137	4.27954	137	16.6931	
138	3.90044	138	4.27954	138	16.6921	
139	3.90022	139	4.27939	139	16.6906	
140	3.89992	140	4.27954	140	16.6899	
141	3.89977	141	4.27954	141	16.6892	
142	3.89954	142	4.27939	142	16.6877	
143	3.89931	143	4.27954	143	16.6873	
144	3.89908	144	4.27954	144	16.6863	
145	3.89885	145	4.27954	145	16.6853	
146	3.8987	146	4.27954	146	16.6846	
147	3.89839	147	4.27954	147	16.6833	
148	3.89825	148	4.27954	148	16.6827	
149	3.89795	149	4.27954	149	16.6814	
150	3.8978	150	4.27939	150	16.6802	
151	3.89757	151	4.27954	151	16.6798	
152	3.89734	152	4.27954	152	16.6788	
153	3.89711	153	4.27954	153	16.6778	
154	3.89696	154	4.27954	154	16.6772	
155	3.89673	155	4.27954	155	16.6762	
156	3.8965	156	4.27954	156	16.6752	
157	3.89635	157	4.27954	157	16.6746	
158	3.89613	158	4.27954	158	16.6736	
159	3.89598	159	4.27954	159	16.673	
160	3.89568	160	4.27954	160	16.6717	
161	3.89552	161	4.27954	161	16.671	
162	3.89529	162	4.27939	162	16.6695	
163	3.89514	163	4.27954	163	16.6694	
164	3.89491	164	4.27954	164	16.6684	
165	3.89476	165	4.27954	165	16.6678	
166	3.89453	166	4.27954	166	16.6668	
167	3.89438	167	4.27954	167	16.6662	
168	3.89424	168	4.27954	168	16.6656	
169	3.89394	169	4.27954	169	16.6643	
170	3.89378	170	4.27954	170	16.6636	
171	3.89355	171	4.27954	171	16.6626	
172	3.8934	172	4.27954	172	16.662	
173	3.89317	173	4.27954	173	16.661	
174	3.89302	174	4.27954	174	16.6603	
175	3.89279	175	4.27954	175	16.6594	
176	3.89264	176	4.27954	176	16.6587	
177	3.89241	177	4.27954	177	16.6577	
178	3.89227	178	4.27954	178	16.6571	
179	3.89212	179	4.27954	179	16.6565	
180	3.89189	180	4.27954	180	16.6555	
181	3.89174	181	4.27954	181	16.6549	
182	3.89151	182	4.27954	182	16.6539	
183	3.89136	183	4.27954	183	16.6532	
184	3.8912	184	4.27954	184	16.6525	
185	3.89105	185	4.27954	185	16.6519	
186	3.89082	186	4.27954	186	16.6509	
187	3.89067	187	4.27954	187	16.6503	
188	3.89044	188	4.27954	188	16.6493	
189	3.8903	189	4.27954	189	16.6487	
190	3.89015	190	4.27954	190	16.6481	
191	3.89	191	4.27954	191	16.6474	
192	3.88985	192	4.27954	192	16.6468	
193	3.88962	193	4.27969	193	16.6464	
194	3.88947	194	4.27954	194	16.6451	
195	3.88931	195	4.27954	195	16.6445	
196	3.88916	196	4.27954	196	16.6438	
197	3.88893	197	4.27954	197	16.6428	
198	3.88878	198	4.27954	198	16.6422	
199	3.88863	199	4.27954	199	16.6415	
200	3.88841	200	4.27954	200	16.6406	
201	3.88834	201	4.27954	201	16.6403	
202	3.88811	202	4.27954	202	16.6393	
203	3.88795	203	4.27954	203	16.6386	
204	3.8878	204	4.27969	204	16.6386	
205	3.88765	205	4.27954	205	16.6374	
206	3.88742	206	4.27954	206	16.6364	
207	3.88727	207	4.27954	207	16.6357	
208	3.88712	208	4.27969	208	16.6357	
209	3.88696	209	4.27954	209	16.6344	
210	3.88681	210	4.27954	210	16.6338	
211	3.88658	211	4.27969	211	16.6334	
212	3.88652	212	4.27969	212	16.6331	
213	3.88629	213	4.27954	213	16.6315	
214	3.88614	214	4.27954	214	16.6309	
215	3.88599	215	4.27969	215	16.6308	
216	3.88583	216	4.27954	216	16.6296	
217	3.88568	217	4.27954	217	16.6289	
218	3.88553	218	4.27954	218	16.6283	
219	3.8853	219	4.27969	219	16.6279	
220	3.88522	220	4.27969	220	16.6275	
221	3.88499	221	4.27954	221	16.626	
222	3.88484	222	4.27969	222	16.6259	
223	3.88469	223	4.27969	223	16.6253	
224	3.88455	224	4.27954	224	16.6241	
225	3.8844	225	4.27954	225	16.6234	
226	3.88417	226	4.27969	226	16.623	
227	3.88402	227	4.27969	227	16.6224	
228	3.88387	228	4.27954	228	16.6212	
229	3.88371	229	4.27954	229	16.6205	
230	3.88356	230	4.27969	230	16.6204	
231	3.88341	231	4.27969	231	16.6198	
232	3.88326	232	4.27954	232	16.6186	
233	3.8831	233	4.27954	233	16.6179	
234	3.88295	234	4.27969	234	16.6178	
235	3.8828	235	4.27954	235	16.6166	
236	3.88264	236	4.27954	236	16.6159	
237	3.88243	237	4.27954	237	16.615	
238	3.88235	238	4.27969	238	16.6153	
239	3.88213	239	4.27954	239	16.6137	
240	3.88205	240	4.27954	240	16.6134	
241	3.88182	241	4.27969	241	16.613	
242	3.88174	242	4.27969	242	16.6126	
243	3.88152	243	4.27954	243	16.6111	
244	3.88136	244	4.27954	244	16.6104	
245	3.88129	245	4.27969	245	16.6107	
246	3.88106	246	4.27969	246	16.6097	
247	3.88091	247	4.27954	247	16.6085	
248	3.88075	248	4.27954	248	16.6078	
249	3.88062	249	4.27969	249	16.6079	
250	3.88046	250	4.27969	250	16.6072	
251	3.88031	251	4.27969	251	16.6065	
252	3.88016	252	4.27954	252	16.6053	
253	3.88	253	4.27969	253	16.6052	
254	3.87985	254	4.27969	254	16.6046	
255	3.8797	255	4.27954	255	16.6033	
256	3.87955	256	4.27954	256	16.6027	
257	3.87939	257	4.27969	257	16.6026	
258	3.87924	258	4.27969	258	16.6019	
259	3.87909	259	4.27969	259	16.6013	
260	3.87894	260	4.27954	260	16.6001	
261	3.87878	261	4.27969	261	16.6	
262	3.87865	262	4.27969	262	16.5994	
263	3.87849	263	4.27954	263	16.5982	
264	3.87834	264	4.27954	264	16.5975	
265	3.87819	265	4.27969	265	16.5975	
266	3.87804	266	4.27969	266	16.5968	
267	3.87788	267	4.27954	267	16.5955	
268	3.87766	268	4.27954	268	16.5946	
269	3.87758	269	4.27969	269	16.5948	
270	3.87743	270	4.27969	270	16.5942	
271	3.87727	271	4.27954	271	16.5929	
272	3.87712	272	4.27954	272	16.5923	
273	3.87697	273	4.27969	273	16.5922	
274	3.87682	274	4.27969	274	16.5916	
275	3.87668	275	4.27954	275	16.5904	
276	3.87653	276	4.27954	276	16.5898	
277	3.87637	277	4.27969	277	16.5897	
278	3.87622	278	4.27969	278	16.589	
279	3.87607	279	4.27954	279	16.5878	
280	3.87592	280	4.27954	280	16.5872	
281	3.87576	281	4.27969	281	16.5871	
282	3.87561	282	4.27969	282	16.5864	
283	3.87546	283	4.27969	283	16.5858	
284	3.87531	284	4.27954	284	16.5845	
285	3.87508	285	4.27969	285	16.5841	
286	3.875	286	4.27969	286	16.5838	
287	3.87485	287	4.27954	287	16.5826	
288	3.87471	288	4.27954	288	16.582	
289	3.87456	289	4.27969	289	16.5819	
290	3.8744	290	4.27969	290	16.5812	
291	3.87425	291	4.27969	291	16.5806	
292	3.8741	292	4.27954	292	16.5794	
293	3.87395	293	4.27969	293	16.5793	
294	3.87379	294	4.27969	294	16.5786	
295	3.87364	295	4.27969	295	16.578	
296	3.87349	296	4.27954	296	16.5768	
297	3.87341	297	4.27969	297	16.577	
298	3.87318	298	4.27969	298	16.576	
299	3.87311	299	4.27969	299	16.5757	
300	3.87296	300	4.27954	300	16.5745	
301	3.8728	301	4.27969	301	16.5744	
302	3.87267	302	4.27969	302	16.5738	
303	3.87251	303	4.27969	303	16.5731	
304	3.87236	304	4.27954	304	16.5719	
305	3.87213	305	4.27954	305	16.5709	
306	3.87206	306	4.27969	306	16.5712	
307	3.8719	307	4.27969	307	16.5705	
308	3.87175	308	4.27954	308	16.5693	
309	3.8716	309	4.27969	309	16.5692	
310	3.87144	310	4.27969	310	16.5686	
311	3.87137	311	4.27969	311	16.5683	
312	3.87114	312	4.27969	312	16.5673	
313	3.87106	313	4.27969	313	16.5669	
314	3.87083	314	4.27969	314	16.566	
315	3.87077	315	4.27969	315	16.5657	
316	3.87054	316	4.27969	316	16.5647	
317	3.87047	317	4.27969	317	16.5644	
318	3.87024	318	4.27969	318	16.5634	
319	3.87009	319	4.27969	319	16.5628	
320	3.86993	320	4.27954	320	16.5615	
321	3.86986	321	4.27954	321	16.5612	
322	3.86971	322	4.27969	322	16.5612	
323	3.86955	323	4.27969	323	16.5605	
324	3.8694	324	4.27954	324	16.5593	
325	3.86925	325	4.27954	325	16.5586	
326	3.86909	326	4.27969	326	16.5585	
327	3.86894	327	4.27969	327	16.5579	
328	3.8688	328	4.27954	328	16.5567	
329	3.86865	329	4.27954	329	16.556	
330	3.86858	330	4.27969	330	16.5563	
331	3.86835	331	4.27969	331	16.5553	
332	3.86819	332	4.27954	332	16.5541	
333	3.86812	333	4.27954	333	16.5538	
334	3.86789	334	4.27969	334	16.5534	
335	3.86781	335	4.27969	335	16.553	
336	3.86766	336	4.27969	336	16.5524	
337	3.86751	337	4.27954	337	16.5512	
338	3.86736	338	4.27969	338	16.5511	
339	3.8672	339	4.27969	339	16.5504	
340	3.86705	340	4.27969	340	16.5498	
341	3.8669	341	4.27954	341	16.5486	
342	3.86676	342	4.27969	342	16.5485	
343	3.86668	343	4.27969	343	16.5482	
344	3.86653	344	4.27969	344	16.5475	
345	3.86638	345	4.27969	345	16.5469	
346	3.86623	346	4.27954	346	16.5457	
347	3.86607	347	4.27969	347	16.5456	
348	3.86592	348	4.27969	348	16.5449	
349	3.86577	349	4.27969	349	16.5443	
350	3.86569	350	4.27969	350	16.544	
351	3.86554	351	4.27969	351	16.5433	
352	3.86539	352	4.27969	352	16.5427	
353	3.86523	353	4.27969	353	16.542	
354	3.86508	354	4.27969	354	16.5413	
355	3.86494	355	4.27969	355	16.5407	
356	3.86479	356	4.27969	356	16.5401	
357	3.86464	357	4.27969	357	16.5395	
358	3.86449	358	4.27969	358	16.5388	
359	3.86441	359	4.27969	359	16.5385	
360	3.86426	360	4.27969	360	16.5378	
361	3.86411	361	4.27969	361	16.5372	
362	3.86395	362	4.27969	362	16.5365	
363	3.8638	363	4.27969	363	16.5359	
364	3.86365	364	4.27969	364	16.5352	
365	3.86349	365	4.27969	365	16.5345	
366	3.86334	366	4.27969	366	16.5339	
367	3.86327	367	4.27954	367	16.533	
368	3.86311	368	4.27969	368	16.5329	
369	3.86298	369	4.27969	369	16.5324	
370	3.86282	370	4.27969	370	16.5317	
371	3.86267	371	4.27954	371	16.5305	
372	3.86252	372	4.27969	372	16.5304	
373	3.86237	373	4.27969	373	16.5297	
374	3.86221	374	4.27969	374	16.5291	
375	3.86206	375	4.27969	375	16.5284	
376	3.86198	376	4.27969	376	16.5281	
377	3.86183	377	4.27969	377	16.5274	
378	3.86168	378	4.27969	378	16.5268	
379	3.86153	379	4.27969	379	16.5262	
380	3.86137	380	4.27969	380	16.5255	
381	3.8613	381	4.27969	381	16.5252	
382	3.86107	382	4.27969	382	16.5242	
383	3.86101	383	4.27969	383	16.5239	
384	3.86086	384	4.27969	384	16.5233	
385	3.8607	385	4.27969	385	16.5226	
386	3.86055	386	4.27969	386	16.522	
387	3.86047	387	4.27969	387	16.5216	
388	3.86032	388	4.27969	388	16.521	
389	3.86017	389	4.27969	389	16.5203	
390	3.86002	390	4.27969	390	16.5197	
391	3.85986	391	4.27969	391	16.519	
392	3.85971	392	4.27969	392	16.5184	
393	3.85956	393	4.27954	393	16.5171	
394	3.85948	394	4.27969	394	16.5174	
395	3.85925	395	4.27969	395	16.5164	
396	3.85918	396	4.27969	396	16.5161	
397	3.85904	397	4.27954	397	16.5149	
398	3.85889	398	4.27969	398	16.5149	
399	3.85881	399	4.27969	399	16.5145	
400	3.85858	400	4.27969	400	16.5135	
401	3.85851	401	4.27969	401	16.5132	
402	3.85835	402	4.27969	402	16.5125	
403	3.8582	403	4.27969	403	16.5119	
404	3.85805	404	4.27969	404	16.5113	
405	3.85789	405	4.27969	405	16.5106	
406	3.85774	406	4.27969	406	16.5099	
407	3.85759	407	4.27969	407	16.5093	
408	3.85744	408	4.27969	408	16.5086	
409	3.85728	409	4.27969	409	16.508	
410	3.85721	410	4.27969	410	16.5077	
411	3.85707	411	4.27969	411	16.5071	
412	3.85692	412	4.27969	412	16.5064	
413	3.85677	413	4.27969	413	16.5058	
414	3.85669	414	4.27969	414	16.5054	
415	3.85646	415	4.27969	415	16.5045	
416	3.85638	416	4.27969	416	16.5041	
417	3.85616	417	4.27969	417	16.5032	
418	3.85608	418	4.27969	418	16.5028	
419	3.85593	419	4.27969	419	16.5022	
420	3.85577	420	4.27969	420	16.5015	
421	3.85562	421	4.27969	421	16.5009	
422	3.85555	422	4.27969	422	16.5006	
423	3.85539	423	4.27954	423	16.4993	
424	3.85524	424	4.27969	424	16.4992	
425	3.8551	425	4.27969	425	16.4986	
426	3.85495	426	4.27969	426	16.498	
427	3.8548	427	4.27969	427	16.4973	
428	3.85472	428	4.27969	428	16.497	
429	3.85457	429	4.27969	429	16.4964	
430	3.85434	430	4.27969	430	16.4954	
431	3.85426	431	4.27969	431	16.495	
432	3.85419	432	4.27969	432	16.4947	
433	3.85396	433	4.27969	433	16.4938	
434	3.85388	434	4.27969	434	16.4934	
435	3.85373	435	4.27969	435	16.4928	
436	3.85358	436	4.27969	436	16.4921	
437	3.85342	437	4.27969	437	16.4914	
438	3.85327	438	4.27969	438	16.4908	
439	3.85313	439	4.27969	439	16.4902	
440	3.85306	440	4.27969	440	16.4899	
441	3.85291	441	4.27969	441	16.4893	
442	3.85275	442	4.27969	442	16.4886	
443	3.8526	443	4.27969	443	16.4879	
444	3.85245	444	4.27969	444	16.4873	
445	3.85237	445	4.27969	445	16.4869	
446	3.85214	446	4.27969	446	16.486	
447	3.85207	447	4.27969	447	16.4857	
448	3.85191	448	4.27969	448	16.485	
449	3.85176	449	4.27969	449	16.4843	
450	3.85161	450	4.27969	450	16.4837	
451	3.85153	451	4.27969	451	16.4834	
452	3.8513	452	4.27969	452	16.4824	
453	3.85123	453	4.27969	453	16.4821	
454	3.85109	454	4.27969	454	16.4815	
455	3.85094	455	4.27969	455	16.4808	
456	3.85078	456	4.27969	456	16.4801	
457	3.85063	457	4.27969	457	16.4795	
458	3.85056	458	4.27954	458	16.4786	
459	3.85033	459	4.27969	459	16.4782	
460	3.85025	460	4.27969	460	16.4779	
461	3.8501	461	4.27969	461	16.4772	
462	3.84995	462	4.27969	462	16.4766	
463	3.84979	463	4.27969	463	16.4759	
464	3.84964	464	4.27969	464	16.4753	
465	3.84956	465	4.27969	465	16.4749	
466	3.84941	466	4.27969	466	16.4743	
467	3.84926	467	4.27954	467	16.4731	
468	3.84912	468	4.27969	468	16.473	
469	3.84897	469	4.27969	469	16.4724	
470	3.84882	470	4.27969	470	16.4718	
471	3.84874	471	4.27969	471	16.4714	
472	3.84851	472	4.27969	472	16.4704	
473	3.84843	473	4.27969	473	16.4701	
474	3.84828	474	4.27969	474	16.4694	
475	3.84813	475	4.27954	475	16.4682	
476	3.84798	476	4.27969	476	16.4682	
477	3.84782	477	4.27969	477	16.4675	
478	3.84767	478	4.27969	478	16.4668	
479	3.8476	479	4.27969	479	16.4665	
480	3.84744	480	4.27954	480	16.4653	
481	3.84729	481	4.27969	481	16.4652	
482	3.84715	482	4.27969	482	16.4646	
483	3.847	483	4.27969	483	16.464	
484	3.84692	484	4.27969	484	16.4636	
485	3.84677	485	4.27969	485	16.463	
486	3.84662	486	4.27969	486	16.4623	
487	3.84639	487	4.27969	487	16.4614	
488	3.84631	488	4.27969	488	16.461	
489	3.84624	489	4.27969	489	16.4607	
490	3.84608	490	4.27969	490	16.46	
491	3.84593	491	4.27969	491	16.4594	
492	3.84578	492	4.27969	492	16.4587	
493	3.84563	493	4.27969	493	16.4581	
494	3.84547	494	4.27969	494	16.4574	
495	3.84532	495	4.27969	495	16.4568	
496	3.84518	496	4.27969	496	16.4562	
497	3.84503	497	4.27969	497	16.4555	
498	3.84496	498	4.27969	498	16.4552	
499	3.8448	499	4.27969	499	16.4546	
500	3.84465	500	4.27969	500	16.4539	
501	3.8445	501	4.27969	501	16.4533	
502	3.84435	502	4.27969	502	16.4526	
503	3.84419	503	4.27969	503	16.4519	
504	3.84404	504	4.27969	504	16.4513	
505	3.84389	505	4.27969	505	16.4507	
506	3.84381	506	4.27969	506	16.4503	
507	3.84358	507	4.27969	507	16.4493	
508	3.84351	508	4.27969	508	16.449	
509	3.84335	509	4.27969	509	16.4483	
510	3.84322	510	4.27969	510	16.4478	
511	3.84306	511	4.27969	511	16.4471	
512	3.84291	512	4.27969	512	16.4465	
513	3.84276	513	4.27969	513	16.4458	
514	3.84261	514	4.27969	514	16.4452	
515	3.84253	515	4.27969	515	16.4448	
516	3.8423	516	4.27969	516	16.4439	
517	3.84222	517	4.27969	517	16.4435	
518	3.842	518	4.27954	518	16.442	
519	3.84192	519	4.27969	519	16.4422	
520	3.84169	520	4.27969	520	16.4412	
521	3.84161	521	4.27969	521	16.4409	
522	3.84146	522	4.27969	522	16.4403	
523	3.84132	523	4.27969	523	16.4397	
524	3.84117	524	4.27969	524	16.439	
525	3.84102	525	4.27969	525	16.4384	
526	3.84087	526	4.27954	526	16.4372	
527	3.84071	527	4.27969	527	16.437	
528	3.84056	528	4.27969	528	16.4364	
529	3.84041	529	4.27969	529	16.4358	
530	3.84026	530	4.27969	530	16.4351	
531	3.84018	531	4.27969	531	16.4348	
532	3.84003	532	4.27969	532	16.4341	
533	3.83987	533	4.27969	533	16.4335	
