Start Voltage: 4.1616V

Time (s) - Voltage	Voltage - Voltage	Time (s) - Current	Current - Current	Time (s) - Power	Power - Power	
0	4.0293	0	2.99986	0	12.0873	
1	4.02188	1	2.99986	1	12.0651	
2	4.01764	2	2.99986	2	12.0524	
3	4.01401	3	2.99986	3	12.0415	
4	4.00984	4	2.99986	4	12.029	
5	4.00696	5	2.99986	5	12.0203	
6	4.00356	6	2.99986	6	12.0101	
7	4.00121	7	2.99986	7	12.0031	
8	3.99826	8	2.99986	8	11.9942	
9	3.99622	9	2.99986	9	11.9881	
10	3.99364	10	2.99986	10	11.9804	
11	3.99182	11	2.99986	11	11.9749	
12	3.98947	12	2.99986	12	11.9679	
13	3.98781	13	2.99986	13	11.9629	
14	3.98622	14	2.99986	14	11.9581	
15	3.9841	15	2.99986	15	11.9517	
16	3.98265	16	2.99986	16	11.9474	
17	3.98076	17	2.99986	17	11.9417	
18	3.97932	18	2.99986	18	11.9374	
19	3.97758	19	2.99986	19	11.9322	
20	3.9763	20	2.99986	20	11.9283	
21	3.97464	21	2.99986	21	11.9234	
22	3.97342	22	2.99986	22	11.9197	
23	3.97183	23	2.99986	23	11.9149	
24	3.9707	24	2.99986	24	11.9115	
25	3.96956	25	2.99986	25	11.9081	
26	3.96812	26	2.99986	26	11.9038	
27	3.96706	27	2.99986	27	11.9006	
28	3.9657	28	2.99986	28	11.8965	
29	3.96465	29	2.99986	29	11.8934	
30	3.96335	30	2.99986	30	11.8895	
31	3.96237	31	2.99986	31	11.8866	
32	3.96115	32	2.99986	32	11.8829	
33	3.96017	33	2.99986	33	11.88	
34	3.95897	34	2.99986	34	11.8764	
35	3.95813	35	2.99986	35	11.8738	
36	3.95721	36	2.99986	36	11.8711	
37	3.95609	37	2.99986	37	11.8677	
38	3.95525	38	2.99986	38	11.8652	
39	3.95412	39	2.99986	39	11.8618	
40	3.95335	40	2.99986	40	11.8595	
41	3.95222	41	2.99971	41	11.8555	
42	3.95146	42	2.99986	42	11.8538	
43	3.95049	43	2.99986	43	11.8509	
44	3.94972	44	2.99986	44	11.8486	
45	3.94875	45	2.99986	45	11.8457	
46	3.94798	46	2.99986	46	11.8434	
47	3.94731	47	2.99986	47	11.8414	
48	3.94632	48	2.99971	48	11.8378	
49	3.94563	49	2.99971	49	11.8357	
50	3.94473	50	2.99986	50	11.8336	
51	3.94405	51	2.99986	51	11.8316	
52	3.94315	52	2.99971	52	11.8283	
53	3.94254	53	2.99971	53	11.8265	
54	3.94162	54	2.99986	54	11.8243	
55	3.94102	55	2.99986	55	11.8225	
56	3.94019	56	2.99971	56	11.8194	
57	3.93958	57	2.99971	57	11.8176	
58	3.93898	58	2.99971	58	11.8158	
59	3.93822	59	2.99986	59	11.8141	
60	3.93761	60	2.99971	60	11.8117	
61	3.93686	61	2.99986	61	11.81	
62	3.93625	62	2.99986	62	11.8082	
63	3.9355	63	2.99986	63	11.8059	
64	3.93497	64	2.99986	64	11.8044	
65	3.93428	65	2.99986	65	11.8023	
66	3.93375	66	2.99986	66	11.8007	
67	3.933	67	2.99971	67	11.7979	
68	3.93246	68	2.99986	68	11.7968	
69	3.93178	69	2.99971	69	11.7942	
70	3.93134	70	2.99986	70	11.7935	
71	3.9308	71	2.99986	71	11.7918	
72	3.93011	72	2.99986	72	11.7898	
73	3.92967	73	2.99986	73	11.7885	
74	3.92906	74	2.99986	74	11.7866	
75	3.92853	75	2.99971	75	11.7845	
76	3.92792	76	2.99971	76	11.7826	
77	3.92747	77	2.99971	77	11.7813	
78	3.92686	78	2.99971	78	11.7794	
79	3.92641	79	2.99971	79	11.7781	
80	3.92595	80	2.99986	80	11.7773	
81	3.92543	81	2.99986	81	11.7757	
82	3.92497	82	2.99971	82	11.7738	
83	3.92436	83	2.99971	83	11.7719	
84	3.92398	84	2.99986	84	11.7714	
85	3.92346	85	2.99986	85	11.7698	
86	3.923	86	2.99986	86	11.7685	
87	3.92247	87	2.99971	87	11.7663	
88	3.92209	88	2.99971	88	11.7651	
89	3.92157	89	2.99986	89	11.7642	
90	3.92119	90	2.99986	90	11.763	
91	3.92081	91	2.99971	91	11.7613	
92	3.92035	92	2.99986	92	11.7605	
93	3.91997	93	2.99986	93	11.7594	
94	3.91945	94	2.99971	94	11.7572	
95	3.91907	95	2.99971	95	11.7561	
96	3.91861	96	2.99986	96	11.7553	
97	3.9183	97	2.99986	97	11.7544	
98	3.91779	98	2.99971	98	11.7522	
99	3.91748	99	2.99986	99	11.7519	
100	3.91702	100	2.99986	100	11.7505	
101	3.91664	101	2.99986	101	11.7494	
102	3.91634	102	2.99986	102	11.7485	
103	3.91589	103	2.99971	103	11.7465	
104	3.91559	104	2.99986	104	11.7462	
105	3.91521	105	2.99986	105	11.7451	
106	3.91483	106	2.99986	106	11.7439	
107	3.91444	107	2.99986	107	11.7428	
108	3.91414	108	2.99971	108	11.7413	
109	3.9137	109	2.99986	109	11.7406	
110	3.91339	110	2.99971	110	11.739	
111	3.91301	111	2.99971	111	11.7379	
112	3.9127	112	2.99986	112	11.7376	
113	3.91248	113	2.99986	113	11.7369	
114	3.91202	114	2.99986	114	11.7355	
115	3.9118	115	2.99971	115	11.7343	
116	3.91142	116	2.99986	116	11.7337	
117	3.91112	117	2.99971	117	11.7322	
118	3.91081	118	2.99986	118	11.7319	
119	3.91051	119	2.99971	119	11.7304	
120	3.9102	120	2.99986	120	11.7301	
121	3.90991	121	2.99971	121	11.7286	
122	3.90961	122	2.99986	122	11.7283	
123	3.9093	123	2.99971	123	11.7268	
124	3.90907	124	2.99986	124	11.7267	
125	3.90869	125	2.99971	125	11.7249	
126	3.90846	126	2.99986	126	11.7248	
127	3.90816	127	2.99971	127	11.7233	
128	3.90794	128	2.99971	128	11.7227	
129	3.90764	129	2.99986	129	11.7224	
130	3.90733	130	2.99971	130	11.7209	
131	3.90703	131	2.99986	131	11.7205	
132	3.9068	132	2.99971	132	11.7193	
133	3.90649	133	2.99986	133	11.7189	
134	3.90627	134	2.99971	134	11.7177	
135	3.90605	135	2.99986	135	11.7176	
136	3.90575	136	2.99986	136	11.7167	
137	3.90552	137	2.99971	137	11.7154	
138	3.90521	138	2.99986	138	11.7151	
139	3.90506	139	2.99971	139	11.714	
140	3.90475	140	2.99986	140	11.7137	
141	3.90453	141	2.99971	141	11.7125	
142	3.90422	142	2.99986	142	11.7121	
143	3.90408	143	2.99986	143	11.7117	
144	3.90378	144	2.99971	144	11.7102	
145	3.90363	145	2.99986	145	11.7103	
146	3.9034	146	2.99986	146	11.7097	
147	3.90309	147	2.99971	147	11.7081	
148	3.90294	148	2.99986	148	11.7083	
149	3.90263	149	2.99971	149	11.7068	
150	3.90248	150	2.99971	150	11.7063	
151	3.90225	151	2.99986	151	11.7062	
152	3.90204	152	2.99971	152	11.705	
153	3.90181	153	2.99986	153	11.7049	
154	3.90158	154	2.99986	154	11.7042	
155	3.90135	155	2.99971	155	11.7029	
156	3.90112	156	2.99986	156	11.7028	
157	3.90097	157	2.99986	157	11.7024	
158	3.90074	158	2.99971	158	11.7011	
159	3.90059	159	2.99986	159	11.7012	
160	3.90028	160	2.99986	160	11.7003	
161	3.90015	161	2.99971	161	11.6993	
162	3.89992	162	2.99986	162	11.6992	
163	3.89977	163	2.99986	163	11.6988	
164	3.89954	164	2.99971	164	11.6975	
165	3.89938	165	2.99986	165	11.6976	
166	3.89915	166	2.99986	166	11.6969	
167	3.89893	167	2.99971	167	11.6957	
168	3.89877	168	2.99986	168	11.6958	
169	3.89862	169	2.99986	169	11.6953	
170	3.89839	170	2.99971	170	11.694	
171	3.89818	171	2.99986	171	11.694	
172	3.89803	172	2.99986	172	11.6935	
173	3.8978	173	2.99971	173	11.6923	
174	3.89764	174	2.99971	174	11.6918	
175	3.89742	175	2.99986	175	11.6917	
176	3.89726	176	2.99971	176	11.6906	
177	3.89711	177	2.99971	177	11.6902	
178	3.89688	178	2.99986	178	11.6901	
179	3.89673	179	2.99986	179	11.6896	
180	3.8965	180	2.99971	180	11.6884	
181	3.89635	181	2.99986	181	11.6885	
182	3.89613	182	2.99986	182	11.6878	
183	3.89598	183	2.99971	183	11.6868	
184	3.89575	184	2.99986	184	11.6867	
185	3.8956	185	2.99986	185	11.6863	
186	3.89545	186	2.99971	186	11.6852	
187	3.89529	187	2.99971	187	11.6847	
188	3.89507	188	2.99986	188	11.6847	
189	3.89491	189	2.99986	189	11.6842	
190	3.89476	190	2.99971	190	11.6832	
191	3.89453	191	2.99986	191	11.683	
192	3.89438	192	2.99986	192	11.6826	
193	3.89417	193	2.99971	193	11.6814	
194	3.89401	194	2.99971	194	11.6809	
195	3.89386	195	2.99986	195	11.681	
196	3.89371	196	2.99986	196	11.6806	
197	3.89348	197	2.99971	197	11.6793	
198	3.89333	198	2.99986	198	11.6794	
199	3.89317	199	2.99986	199	11.679	
200	3.89294	200	2.99971	200	11.6777	
201	3.89287	201	2.99971	201	11.6775	
202	3.89264	202	2.99986	202	11.6774	
203	3.89249	203	2.99986	203	11.6769	
204	3.89227	204	2.99971	204	11.6757	
205	3.89212	205	2.99986	205	11.6758	
206	3.89189	206	2.99986	206	11.6751	
207	3.89182	207	2.99971	207	11.6743	
208	3.89159	208	2.99986	208	11.6742	
209	3.89151	209	2.99986	209	11.674	
210	3.89128	210	2.99986	210	11.6733	
211	3.89105	211	2.99971	211	11.672	
212	3.89098	212	2.99986	212	11.6724	
213	3.89075	213	2.99986	213	11.6717	
214	3.89059	214	2.99971	214	11.6706	
215	3.89044	215	2.99971	215	11.6702	
216	3.8903	216	2.99986	216	11.6704	
217	3.89008	217	2.99986	217	11.6697	
218	3.88992	218	2.99971	218	11.6686	
219	3.88977	219	2.99986	219	11.6688	
220	3.88962	220	2.99986	220	11.6683	
221	3.88947	221	2.99986	221	11.6679	
222	3.88924	222	2.99971	222	11.6666	
223	3.88908	223	2.99986	223	11.6667	
224	3.88893	224	2.99986	224	11.6662	
225	3.88878	225	2.99971	225	11.6652	
226	3.88855	226	2.99971	226	11.6645	
227	3.88841	227	2.99986	227	11.6647	
228	3.88826	228	2.99986	228	11.6642	
229	3.88811	229	2.99971	229	11.6632	
230	3.88788	230	2.99986	230	11.6631	
231	3.88773	231	2.99986	231	11.6626	
232	3.88757	232	2.99971	232	11.6616	
233	3.88742	233	2.99971	233	11.6611	
234	3.88727	234	2.99986	234	11.6613	
235	3.88704	235	2.99986	235	11.6606	
236	3.88689	236	2.99971	236	11.6595	
237	3.88673	237	2.99986	237	11.6596	
238	3.88658	238	2.99986	238	11.6592	
239	3.88637	239	2.99971	239	11.658	
240	3.88622	240	2.99971	240	11.6575	
241	3.88606	241	2.99986	241	11.6576	
242	3.88591	242	2.99986	242	11.6572	
243	3.88576	243	2.99971	243	11.6562	
244	3.88553	244	2.99971	244	11.6555	
245	3.88545	245	2.99986	245	11.6558	
246	3.88522	246	2.99986	246	11.6551	
247	3.88507	247	2.99971	247	11.6541	
248	3.88484	248	2.99986	248	11.654	
249	3.88469	249	2.99986	249	11.6535	
250	3.88455	250	2.99971	250	11.6525	
251	3.8844	251	2.99971	251	11.6521	
252	3.88417	252	2.99986	252	11.652	
253	3.88402	253	2.99986	253	11.6515	
254	3.88387	254	2.99971	254	11.6505	
255	3.88371	255	2.99971	255	11.65	
256	3.88356	256	2.99986	256	11.6501	
257	3.88333	257	2.99971	257	11.6489	
258	3.88318	258	2.99971	258	11.6484	
259	3.88303	259	2.99986	259	11.6485	
260	3.88287	260	2.99986	260	11.6481	
261	3.88264	261	2.99971	261	11.6468	
262	3.88251	262	2.99971	262	11.6464	
263	3.88235	263	2.99986	263	11.6465	
264	3.8822	264	2.99986	264	11.6461	
265	3.88205	265	2.99971	265	11.645	
266	3.88182	266	2.99986	266	11.6449	
267	3.88167	267	2.99986	267	11.6445	
268	3.88152	268	2.99971	268	11.6434	
269	3.88136	269	2.99971	269	11.643	
270	3.88113	270	2.99986	270	11.6428	
271	3.88098	271	2.99971	271	11.6418	
272	3.88075	272	2.99971	272	11.6411	
273	3.88068	273	2.99971	273	11.6409	
274	3.88046	274	2.99986	274	11.6408	
275	3.88031	275	2.99971	275	11.6398	
276	3.88016	276	2.99971	276	11.6394	
277	3.87993	277	2.99986	277	11.6392	
278	3.87978	278	2.99986	278	11.6388	
279	3.87962	279	2.99971	279	11.6377	
280	3.87947	280	2.99971	280	11.6373	
281	3.87924	281	2.99986	281	11.6372	
282	3.87909	282	2.99986	282	11.6367	
283	3.87894	283	2.99971	283	11.6357	
284	3.87878	284	2.99986	284	11.6358	
285	3.87857	285	2.99971	285	11.6346	
286	3.87842	286	2.99971	286	11.6341	
287	3.87827	287	2.99971	287	11.6337	
288	3.87811	288	2.99986	288	11.6338	
289	3.87796	289	2.99971	289	11.6328	
290	3.87773	290	2.99971	290	11.6321	
291	3.87758	291	2.99986	291	11.6322	
292	3.87735	292	2.99986	292	11.6315	
293	3.8772	293	2.99971	293	11.6305	
294	3.87697	294	2.99971	294	11.6298	
295	3.87682	295	2.99986	295	11.6299	
296	3.87668	296	2.99971	296	11.6289	
297	3.87653	297	2.99971	297	11.6285	
298	3.87637	298	2.99986	298	11.6286	
299	3.87614	299	2.99971	299	11.6273	
300	3.87599	300	2.99971	300	11.6268	
301	3.87576	301	2.99986	301	11.6267	
302	3.87561	302	2.99986	302	11.6263	
303	3.87546	303	2.99971	303	11.6253	
304	3.87531	304	2.99971	304	11.6248	
305	3.87508	305	2.99986	305	11.6247	
306	3.87492	306	2.99986	306	11.6242	
307	3.87471	307	2.99971	307	11.623	
308	3.87456	308	2.99971	308	11.6226	
309	3.8744	309	2.99986	309	11.6227	
310	3.87418	310	2.99971	310	11.6214	
311	3.87402	311	2.99971	311	11.6209	
312	3.87387	312	2.99986	312	11.6211	
313	3.87364	313	2.99971	313	11.6198	
314	3.87349	314	2.99971	314	11.6193	
315	3.87334	315	2.99986	315	11.6195	
316	3.87311	316	2.99986	316	11.6188	
317	3.87296	317	2.99971	317	11.6178	
318	3.87274	318	2.99971	318	11.6171	
319	3.87259	319	2.99986	319	11.6172	
320	3.87244	320	2.99971	320	11.6162	
321	3.87228	321	2.99971	321	11.6157	
322	3.87213	322	2.99986	322	11.6158	
323	3.8719	323	2.99971	323	11.6146	
324	3.87175	324	2.99971	324	11.6141	
325	3.87152	325	2.99986	325	11.614	
326	3.87137	326	2.99986	326	11.6136	
327	3.87114	327	2.99971	327	11.6123	
328	3.87099	328	2.99971	328	11.6118	
329	3.87083	329	2.99986	329	11.6119	
330	3.87062	330	2.99971	330	11.6107	
331	3.87047	331	2.99971	331	11.6103	
332	3.87032	332	2.99986	332	11.6104	
333	3.87009	333	2.99971	333	11.6091	
334	3.86993	334	2.99971	334	11.6087	
335	3.86978	335	2.99971	335	11.6082	
336	3.86955	336	2.99986	336	11.6081	
337	3.8694	337	2.99971	337	11.6071	
338	3.86917	338	2.99971	338	11.6064	
339	3.86902	339	2.99986	339	11.6065	
340	3.8688	340	2.99971	340	11.6053	
341	3.86865	341	2.99971	341	11.6048	
342	3.8685	342	2.99971	342	11.6044	
343	3.86827	343	2.99971	343	11.6037	
344	3.86812	344	2.99971	344	11.6032	
345	3.86797	345	2.99971	345	11.6028	
346	3.86781	346	2.99986	346	11.6029	
347	3.86758	347	2.99971	347	11.6016	
348	3.86743	348	2.99971	348	11.6012	
349	3.8672	349	2.99986	349	11.6011	
350	3.86705	350	2.99971	350	11.6	
351	3.86684	351	2.99971	351	11.5994	
352	3.86668	352	2.99971	352	11.5989	
353	3.86646	353	2.99971	353	11.5983	
354	3.8663	354	2.99971	354	11.5978	
355	3.86615	355	2.99971	355	11.5973	
356	3.86592	356	2.99986	356	11.5972	
357	3.86577	357	2.99971	357	11.5962	
358	3.86554	358	2.99971	358	11.5955	
359	3.86539	359	2.99986	359	11.5956	
360	3.86516	360	2.99971	360	11.5944	
361	3.86501	361	2.99971	361	11.5939	
362	3.86479	362	2.99986	362	11.5938	
363	3.86464	363	2.99971	363	11.5928	
364	3.86449	364	2.99971	364	11.5923	
365	3.86433	365	2.99971	365	11.5919	
366	3.86418	366	2.99986	366	11.592	
367	3.86395	367	2.99971	367	11.5907	
368	3.8638	368	2.99971	368	11.5903	
369	3.86357	369	2.99986	369	11.5902	
370	3.86342	370	2.99971	370	11.5891	
371	3.86319	371	2.99971	371	11.5884	
372	3.86304	372	2.99971	372	11.588	
373	3.86282	373	2.99971	373	11.5873	
374	3.86267	374	2.99971	374	11.5869	
375	3.86252	375	2.99971	375	11.5864	
376	3.86229	376	2.99986	376	11.5863	
377	3.86214	377	2.99971	377	11.5853	
378	3.86191	378	2.99971	378	11.5846	
379	3.86176	379	2.99986	379	11.5847	
380	3.86153	380	2.99971	380	11.5835	
381	3.86137	381	2.99971	381	11.583	
382	3.86115	382	2.99971	382	11.5823	
383	3.86101	383	2.99986	383	11.5825	
384	3.86086	384	2.99971	384	11.5815	
385	3.8607	385	2.99971	385	11.581	
386	3.86055	386	2.99986	386	11.5811	
387	3.86032	387	2.99971	387	11.5798	
388	3.86017	388	2.99971	388	11.5794	
389	3.85994	389	2.99986	389	11.5793	
390	3.85979	390	2.99971	390	11.5783	
391	3.85956	391	2.99971	391	11.5776	
392	3.85941	392	2.99986	392	11.5777	
393	3.85918	393	2.99971	393	11.5764	
394	3.85904	394	2.99971	394	11.576	
395	3.85881	395	2.99971	395	11.5753	
396	3.85866	396	2.99986	396	11.5754	
397	3.85851	397	2.99971	397	11.5744	
398	3.85828	398	2.99971	398	11.5737	
399	3.85812	399	2.99986	399	11.5738	
400	3.85789	400	2.99971	400	11.5726	
401	3.85774	401	2.99971	401	11.5721	
402	3.85751	402	2.99986	402	11.572	
403	3.85736	403	2.99971	403	11.571	
404	3.85713	404	2.99971	404	11.5703	
405	3.85699	405	2.99971	405	11.5699	
406	3.85677	406	2.99971	406	11.5692	
407	3.85661	407	2.99971	407	11.5687	
408	3.85646	408	2.99971	408	11.5683	
409	3.85623	409	2.99986	409	11.5682	
410	3.85608	410	2.99971	410	11.5671	
411	3.85593	411	2.99971	411	11.5667	
412	3.8557	412	2.99986	412	11.5666	
413	3.85555	413	2.99971	413	11.5655	
414	3.85532	414	2.99971	414	11.5648	
415	3.85516	415	2.99971	415	11.5644	
416	3.85503	416	2.99971	416	11.564	
417	3.8548	417	2.99971	417	11.5633	
418	3.85464	418	2.99971	418	11.5628	
419	3.85449	419	2.99971	419	11.5624	
420	3.85426	420	2.99971	420	11.5617	
421	3.85411	421	2.99971	421	11.5612	
422	3.85388	422	2.99971	422	11.5605	
423	3.85365	423	2.99971	423	11.5598	
424	3.8535	424	2.99971	424	11.5594	
425	3.85335	425	2.99971	425	11.5589	
426	3.85313	426	2.99971	426	11.5583	
427	3.85298	427	2.99971	427	11.5578	
428	3.85275	428	2.99971	428	11.5571	
429	3.8526	429	2.99971	429	11.5567	
430	3.85245	430	2.99971	430	11.5562	
431	3.85222	431	2.99971	431	11.5555	
432	3.85207	432	2.99986	432	11.5557	
433	3.85184	433	2.99971	433	11.5544	
434	3.85168	434	2.99971	434	11.5539	
435	3.85146	435	2.99971	435	11.5533	
436	3.8513	436	2.99971	436	11.5528	
437	3.85109	437	2.99971	437	11.5522	
438	3.85094	438	2.99971	438	11.5517	
439	3.85078	439	2.99986	439	11.5518	
440	3.85056	440	2.99971	440	11.5506	
441	3.85048	441	2.99971	441	11.5503	
442	3.85025	442	2.99971	442	11.5496	
443	3.8501	443	2.99971	443	11.5492	
444	3.84987	444	2.99971	444	11.5485	
445	3.84972	445	2.99971	445	11.548	
446	3.84949	446	2.99971	446	11.5474	
447	3.84933	447	2.99971	447	11.5469	
448	3.84912	448	2.99971	448	11.5462	
449	3.84897	449	2.99971	449	11.5458	
450	3.84874	450	2.99971	450	11.5451	
451	3.84859	451	2.99971	451	11.5447	
452	3.84843	452	2.99971	452	11.5442	
453	3.84821	453	2.99971	453	11.5435	
454	3.84805	454	2.99971	454	11.543	
455	3.84782	455	2.99971	455	11.5423	
456	3.84767	456	2.99971	456	11.5419	
457	3.84744	457	2.99971	457	11.5412	
458	3.84729	458	2.99971	458	11.5408	
459	3.84715	459	2.99971	459	11.5403	
460	3.84692	460	2.99971	460	11.5396	
461	3.84669	461	2.99971	461	11.539	
462	3.84654	462	2.99971	462	11.5385	
463	3.84639	463	2.99971	463	11.5381	
464	3.84624	464	2.99971	464	11.5376	
465	3.84608	465	2.99986	465	11.5377	
466	3.84586	466	2.99971	466	11.5365	
467	3.8457	467	2.99971	467	11.536	
468	3.84547	468	2.99971	468	11.5353	
469	3.84526	469	2.99971	469	11.5347	
470	3.84511	470	2.99971	470	11.5342	
471	3.84488	471	2.99971	471	11.5335	
472	3.84473	472	2.99971	472	11.5331	
473	3.84457	473	2.99971	473	11.5326	
474	3.84442	474	2.99971	474	11.5321	
475	3.84419	475	2.99986	475	11.532	
476	3.84404	476	2.99971	476	11.531	
477	3.84381	477	2.99971	477	11.5303	
478	3.84366	478	2.99971	478	11.5299	
479	3.84343	479	2.99971	479	11.5292	
480	3.84329	480	2.99971	480	11.5288	
481	3.84306	481	2.99971	481	11.5281	
482	3.84291	482	2.99971	482	11.5276	
483	3.84276	483	2.99971	483	11.5272	
484	3.84253	484	2.99971	484	11.5265	
485	3.84238	485	2.99986	485	11.5266	
486	3.84215	486	2.99971	486	11.5253	
487	3.842	487	2.99971	487	11.5249	
488	3.84184	488	2.99986	488	11.525	
489	3.84161	489	2.99986	489	11.5243	
490	3.84146	490	2.99971	490	11.5233	
491	3.84125	491	2.99971	491	11.5226	
492	3.84109	492	2.99986	492	11.5227	
493	3.84094	493	2.99971	493	11.5217	
494	3.84071	494	2.99971	494	11.521	
495	3.84056	495	2.99986	495	11.5211	
496	3.84033	496	2.99971	496	11.5199	
497	3.8401	497	2.99971	497	11.5192	
498	3.83995	498	2.99986	498	11.5193	
499	3.83972	499	2.99971	499	11.518	
500	3.83957	500	2.99971	500	11.5176	
501	3.83943	501	2.99986	501	11.5178	
502	3.83928	502	2.99986	502	11.5173	
503	3.83905	503	2.99971	503	11.516	
504	3.83882	504	2.99971	504	11.5153	
505	3.83867	505	2.99986	505	11.5155	
506	3.83844	506	2.99971	506	11.5142	
507	3.83829	507	2.99971	507	11.5138	
508	3.83806	508	2.99971	508	11.5131	
509	3.83791	509	2.99971	509	11.5126	
510	3.83768	510	2.99971	510	11.5119	
511	3.83752	511	2.99986	511	11.512	
512	3.83731	512	2.99971	512	11.5108	
513	3.83716	513	2.99971	513	11.5104	
514	3.83701	514	2.99971	514	11.5099	
515	3.83685	515	2.99971	515	11.5094	
516	3.83662	516	2.99971	516	11.5087	
517	3.83647	517	2.99971	517	11.5083	
518	3.83632	518	2.99986	518	11.5084	
519	3.83609	519	2.99971	519	11.5072	
520	3.83594	520	2.99971	520	11.5067	
521	3.83571	521	2.99971	521	11.506	
522	3.83549	522	2.99971	522	11.5054	
523	3.83527	523	2.99971	523	11.5047	
524	3.83519	524	2.99986	524	11.505	
525	3.83496	525	2.99971	525	11.5038	
526	3.83473	526	2.99971	526	11.5031	
527	3.83458	527	2.99971	527	11.5026	
528	3.83435	528	2.99971	528	11.5019	
529	3.8342	529	2.99971	529	11.5015	
530	3.83397	530	2.99971	530	11.5008	
531	3.83382	531	2.99971	531	11.5003	
532	3.83359	532	2.99971	532	11.4997	
533	3.83345	533	2.99971	533	11.4992	
